wavelength,intensity
131.492,0.0
132.73,0.0005090506869487773
133.969,0.00024120048920293067
135.207,0.0025897064666972913
136.445,0.009153068286294445
137.683,0.01831814710512108
138.921,0.028478044223516217
140.158,0.03655079007997466
141.395,0.03965533575753551
142.633,0.0404586013370055
143.869,0.04363812920070997
145.106,0.05079029707395046
146.343,0.06167236322090689
147.579,0.07539249347622598
148.815,0.08910908409135593
150.051,0.1013060538362447
151.287,0.10802977008428977
152.522,0.11240020746521885
153.758,0.119959618215453
154.993,0.12828902192737923
156.228,0.13469257044708344
157.462,0.13512590968503319
158.697,0.12666398766301223
159.931,0.11069279171206625
161.166,0.09259209003746836
162.4,0.07254681671704558
163.633,0.05610421827406118
164.867,0.042706287403575065
166.1,0.031115430128443422
167.334,0.02312402326400251
168.567,0.017271800372278632
169.8,0.01396223194661182
171.032,0.013100853233351663
172.265,0.012128998955612967
173.497,0.01209241459228824
174.729,0.013905437692453764
175.961,0.0153932405915701
177.193,0.018492801679933096
178.424,0.0187087730685145
179.655,0.018143298577421984
180.887,0.01728086766974944
182.117,0.01520533903457078
183.348,0.013303451570369171
184.579,0.011310905677926019
185.809,0.009977397149300892
187.039,0.009141906297643216
188.269,0.00867250636916384
189.499,0.008843723129052435
190.729,0.009489401987773094
191.958,0.010603763149290946
193.187,0.012373292314529657
194.416,0.014225615118438974
195.645,0.016098322370779985
196.874,0.019877974408853118
198.102,0.021379528567663147
199.331,0.02276492434240331
200.559,0.020775612614352148
201.787,0.016943840586699493
203.014,0.01293758369301101
204.242,0.008800704378698959
205.469,0.005854254548216002
206.696,0.0032903850304883344
207.923,0.001453936300621761
209.15,0.0006598185090707231
210.376,0.0004890774186376816
211.603,0.0004274445248292947
212.829,0.0012310233382119044
214.055,0.0016006039587109183
215.281,0.001221283024222943
216.506,0.001300611209683717
217.732,0.0014751688080521983
218.957,0.002278581791716358
220.182,0.0027073330741223278
221.407,0.0019294903542080623
222.632,0.0011803095070636836
223.856,0.00025702074131950963
225.08,0.0006300389827890602
226.304,8.262412384730156e-05
227.528,0.0007455917489690355
228.752,0.0004680581139183627
229.976,0.0011703369344924486
231.199,0.0008354370297315105
232.422,5.653329054849526e-05
233.645,9.455203244959402e-05
234.868,0.00024133780784698055
236.091,0.00029020486809268445
237.313,0.0003315145540934686
238.535,0.000857247031883217
239.757,0.0009234683661176064
240.979,0.0021385390793675022
242.201,0.003239874849871543
243.422,0.004190026284428643
244.643,0.006321433716138357
245.864,0.0078097360439389136
247.085,0.012862839099154063
248.306,0.01487203099813052
249.527,0.019431882768578112
250.747,0.022663826400014894
251.967,0.02833240500061078
253.187,0.03497361853931584
254.407,0.04275681697948057
255.626,0.05201186084497745
256.846,0.060272217329104594
258.065,0.06426245856314276
259.284,0.06631763184282279
260.503,0.0621788711855061
261.722,0.0543038021115556
262.94,0.05300858473166147
264.158,0.05201006678077199
265.376,0.052432253727714866
266.594,0.05097256429958022
267.812,0.04734079164025825
269.029,0.04480504674580326
270.247,0.04022815621422604
271.464,0.03839102477019696
272.681,0.03929366211136038
273.898,0.04045830555885271
275.114,0.046733801533687086
276.331,0.05331842446876553
277.547,0.06125672218390282
278.763,0.0713877057756571
279.979,0.083054165886171
281.194,0.09667329517554522
282.41,0.11096515005374286
283.625,0.12173923293081967
284.84,0.12912626805266494
286.055,0.12617663254601177
287.27,0.11425517287721458
288.485,0.09848001480688078
289.699,0.0818725564098817
290.913,0.06359128459741596
292.127,0.04970673078207811
293.341,0.03934423532666547
294.554,0.03274750488261131
295.768,0.026393171908002666
296.981,0.023436146796351885
298.194,0.020191348937324136
299.407,0.01803541228398591
300.62,0.016012658229380652
301.832,0.0144573888184949
303.045,0.011992480367222285
304.257,0.011226633148491457
305.469,0.009153684086710911
306.68,0.008697686302728493
307.892,0.007128971107946191
309.103,0.006964251769774644
310.315,0.005793833375069623
311.526,0.005130727849445177
312.736,0.004810182882738959
313.947,0.004420212964986071
315.158,0.004935426989803909
316.368,0.005317460840299861
317.578,0.005070127269878254
318.788,0.005258814336070228
319.998,0.006013732309614318
321.207,0.006486749459437663
322.417,0.008640014411756417
323.626,0.010080206725917749
324.835,0.012264033804417518
326.043,0.01412985572926733
327.252,0.016215387484596937
328.461,0.020383425330217763
329.669,0.02427303410879651
330.877,0.025896943446418488
332.085,0.026952716289572833
333.292,0.025908590317287407
334.5,0.02160114398525847
335.707,0.017870751131680483
336.914,0.01450888815883578
338.121,0.01171145718031556
339.328,0.009598708986107
340.535,0.007652784518894764
341.741,0.006880289564959404
342.947,0.006359947910689492
344.154,0.006591178542661607
345.359,0.005406548250156086
346.565,0.005865673524442607
347.771,0.005325936581465085
348.976,0.0056686901235059525
350.181,0.006525399421009751
351.386,0.005659113699706571
352.591,0.0073646141680992865
353.795,0.00759212090463954
355.0,0.008090638010291215
356.204,0.008308161021969228
357.408,0.007458778294774728
358.612,0.007442175927641015
359.815,0.0066708980280720575
361.019,0.007465983644529605
362.222,0.006695331243021468
363.425,0.0064427851887596905
364.628,0.007274940050759657
365.831,0.007295130546304277
367.034,0.009173156956573352
368.236,0.009755413221220128
369.438,0.012582732339638773
370.64,0.013481335460751007
371.842,0.015437684895643584
373.044,0.014855608037417352
374.245,0.013820922721910357
375.447,0.011297518079895591
376.648,0.00865968608332811
377.849,0.005845395750098801
379.049,0.003972321926801215
380.25,0.002633421992797589
381.45,0.002265725624596519
382.651,0.0004402200075481097
383.851,2.4802860059244442e-05
385.05,0.0003334322632644334
386.25,0.0011127290479731084
387.45,6.0771258107551375e-05
388.649,0.0001054429234529124
389.848,0.0008333437931977418
391.047,0.0006331688975042505
392.246,0.0001710535485341211
393.444,0.000693173071943416
394.643,0.0008418670528203006
395.841,0.0022318124774090473
397.039,0.002438644805951425
398.237,0.0037704140620616984
399.434,0.0041130512323703195
400.632,0.004620567751982325
401.829,0.006534282463237837
403.026,0.006876953575301695
404.223,0.007612214423740623
405.42,0.009118370114796532
406.617,0.00508224932532051
407.813,0.003698410507381353
409.009,0.0037788708928204336
410.205,0.004164873019385963
411.401,0.003348443372587909
412.597,0.0032108861664869336
413.792,0.003243189504711674
414.988,0.002233033895715409
416.183,0.0022848275595624256
417.378,4.391404172904224e-05
418.573,0.00013417602542057803
419.767,0.00010473266798043976
420.962,0.0008237600961650945
422.156,0.0008401626918251195
423.35,0.0013323084451363448
424.544,0.00034649188696281487
425.738,0.0016789143763967604
426.931,0.0005493565212942774
428.124,0.001122388871513933
429.318,0.0008090618615002508
430.511,0.0005988581468982725
431.703,0.00042048379815324264
432.896,9.568849939141637e-05
434.089,0.00040857955180317347
435.281,0.0003942130250634515
436.473,0.0007529595342668385
437.665,0.0007961159911701394
438.857,0.0015663969728995258
440.048,0.002011531940559031
441.239,0.0033484811934008886
442.431,0.005024514399660134
443.622,0.006040740249139663
444.812,0.008176685208642523
446.003,0.011665121835593083
447.194,0.013659786663327542
448.384,0.01734153613282684
449.574,0.021076307472830565
450.764,0.025392695032953716
451.954,0.02979121194310924
453.143,0.03225963094163793
454.333,0.03348784244786945
455.522,0.03239175164831416
456.711,0.02889861166385201
457.9,0.02481624280845269
459.089,0.023041724205193948
460.277,0.020222497770988557
461.465,0.018850489594278822
462.654,0.018084797537857657
463.842,0.020514382319571537
465.029,0.02288364775340476
466.217,0.02654260290985044
467.405,0.03229616681674089
468.592,0.03742901360147738
469.779,0.045951133750824595
470.966,0.054914462776514676
472.153,0.06375653245720479
473.339,0.07560967222152942
474.525,0.0828855723390801
475.712,0.08633570327083315
476.898,0.0851018719796986
478.084,0.07678391148810985
479.269,0.06756407007161729
480.455,0.06030310432637146
481.64,0.05308092915854085
482.825,0.049771801975692136
484.01,0.046171716369296234
485.195,0.04225643307729078
486.38,0.03530579680018889
487.564,0.030508023023165052
488.748,0.025122353801302708
489.932,0.02218652289138717
491.116,0.018211739702448958
492.3,0.01580442556099359
493.484,0.015806961494992104
494.667,0.016085899688362763
495.85,0.016088542296449175
497.033,0.01749266422243653
498.216,0.020366207162667585
499.399,0.024675496047123748
500.581,0.02928586284701031
501.763,0.03700988626132812
502.946,0.046868138152098164
504.128,0.059595321753209037
505.309,0.07560555072267906
506.491,0.09287492183504706
507.672,0.11340362272650699
508.854,0.1367118139544326
510.035,0.16362345587134489
511.216,0.1885526568412307
512.396,0.2076927035494476
513.577,0.2125923413827638
514.757,0.20288276892640414
515.938,0.18094509728677993
517.118,0.1495720055966781
518.297,0.12084215233987097
519.477,0.09472639609507542
520.657,0.07282460573956032
521.836,0.058288467200090344
523.015,0.04513402963286173
524.194,0.03563936182420452
525.373,0.03040932039893203
526.551,0.024080366159597296
527.73,0.021167799898486536
528.908,0.01756840767366192
530.086,0.014972896197054442
531.264,0.01321251191044137
532.442,0.011714235555422926
533.62,0.010389804021912958
534.797,0.008976285078546767
535.974,0.008229367661594565
537.151,0.007134086615342822
538.328,0.007237541085309208
539.505,0.005714099343192642
540.681,0.005803763762887919
541.858,0.0052388565839900985
543.034,0.004295772307755834
544.21,0.003003589805662226
545.386,0.00467405607918017
546.561,0.0035225461514361966
547.737,0.0034087030799557967
548.912,0.0037021799817416766
550.087,0.003156838770092092
551.262,0.0021473086591566478
552.437,0.00284762210663777
553.612,0.0028939041143163017
554.786,0.003010512469084189
555.96,0.0019644736364499765
557.134,0.0021562862534171825
558.308,0.0013483798662416873
559.482,0.0016852023289957675
560.656,0.002053712814440339
561.829,0.0018773087845868933
563.002,0.0015143288657172964
564.175,0.0013685136305668388
565.348,0.0014637949258718389
566.521,0.0019319525861094932
567.693,0.0017101567923291947
568.866,0.001813488102212288
570.038,0.0018997248895107123
571.21,0.0014713901209297384
572.382,0.001505937978940167
573.553,0.0010795543764031785
574.725,0.0016155194206092874
575.896,0.0018125314295967853
577.067,0.0018714276481685286
578.238,0.0024240794290142286
579.409,0.0028624910198432408
580.58,0.0028029600904485408
581.75,0.003829878077710357
582.921,0.00366207294910543
584.091,0.004054041551359637
585.261,0.002962327298701223
586.43,0.002661823483816576
587.6,0.0019193568007405543
588.769,0.0015261570825356317
589.939,0.0014627437012238863
591.108,0.0007948470544064441
592.277,0.000697652898752656
593.445,0.00033869779321921866
594.614,0.00023838778443455318
595.782,0.0001463359501640353
596.95,0.0004760842722913455
598.119,0.00046164195846099855
599.286,0.0005149599465357681
600.454,0.0005387119019693239
601.622,0.00030652702179279463
602.789,0.00029686724674019173
603.956,0.00022416332818461448
605.123,0.000153997477109315
606.29,0.0009346861162238698
607.457,0.0008232863662384111
608.623,0.00019799670779518323
609.789,0.001003204337523458
610.956,0.000538152832772327
612.122,0.0001410609650060051
613.287,0.00023873820881327792
614.453,0.0008796539240448999
615.618,0.0010890813422163562
616.784,0.0014272774762931525
617.949,0.0014979830012767411
619.114,0.0018275894468671552
620.279,0.0021549130669766834
621.443,0.0025448645592052992
622.608,0.0030021783135265297
623.772,0.0037456487027931703
624.936,0.004445565031738004
626.1,0.0044279502305337535
627.264,0.00555474280234875
628.427,0.006497344135894194
629.591,0.005544152974714395
630.754,0.005298948037228448
631.917,0.005276861652212658
633.08,0.005284081548434066
634.243,0.0042343382156567
635.405,0.005449053025358811
636.568,0.004065121594916076
637.73,0.0051105373539005565
638.892,0.005588684557587065
640.054,0.0053638398244219305
641.215,0.005919708798782006
642.377,0.006165379223196935
643.538,0.007541198574137712
644.7,0.00814128395792896
645.861,0.008266267198360792
647.021,0.01029687149607045
648.182,0.011212285483670004
649.343,0.010784614518845048
650.503,0.010337577358245543
651.663,0.01196113273184861
652.823,0.012396741218577157
653.983,0.01078132701740911
655.143,0.01101818228310643
656.302,0.010013763315627658
657.462,0.009247062704193697
658.621,0.00879544340663702
659.78,0.007058900778667776
660.939,0.005458144566940503
662.097,0.005656311080488321
663.256,0.004428916115911393
664.414,0.003206397126915557
665.572,0.002914899514342289
666.73,0.0034089683105288735
667.888,0.0029867420881263614
669.046,0.002244512027572572
670.203,0.0012065707279737862
671.36,0.00159426800277236
672.518,0.0007600906970424088
673.674,0.0008957064347437525
674.831,0.0006967907781696028
675.988,0.0005463919514153194
677.144,0.0014433673229227674
678.301,2.7445089937526372e-05
679.457,0.00031827969396161385
680.613,0.00012423210938840865
681.769,0.0009338909093868577
682.924,0.00048769501943504674
684.08,0.0015979521378623705
685.235,0.002208789784830898
686.39,0.0005649256044220929
687.545,0.0015442456136665656
688.7,0.0005404070502023689
689.854,5.5373161354449624e-05
691.009,1.2680804616988799e-05
692.163,0.0006853034335503037
693.317,0.00033804436594265933
694.471,1.0616268261685177e-05
695.625,0.0011495781569886949
696.778,0.0007613693314504578
697.932,0.0007505162127718974
699.085,0.00025041514237969395
700.238,5.5562556348679434e-05
701.391,0.00036229793203041555
702.544,0.0006711831784889466
703.697,0.00015712268846699383
704.849,0.00011028229042656971
706.001,0.0007644187557175116
707.153,0.0005267886482363212
708.305,0.0005220343780918685
709.457,0.0011769759418170634
710.609,0.0007508289618023077
711.76,0.0010425631968978089
712.911,0.0012190903868345478
714.062,0.00018544848937179968
715.213,0.0007453168207516052
716.364,0.00035457012168597755
717.515,0.0007269635439298125
718.665,0.0003833884174592914
719.815,0.0008035977237890996
720.965,7.159591419993329e-06
722.115,0.0007844012367907436
723.265,0.00105965723460026
724.415,0.00019055303843031177
725.564,0.00030572202033498535
726.713,0.0007941556123640177
727.863,0.0014571753138359319
729.011,5.124409834148674e-05
730.16,0.0008935375565840242
731.309,0.0011006162052929888
732.457,0.0023937742904085895
733.606,0.002704279285915315
734.754,0.0026656685998028597
735.902,0.0031057840667448357
737.049,0.003646219724998048
738.197,0.004437032074471092
739.344,0.0053783475003752225
740.492,0.006432680243343026
741.639,0.007637054939752893
742.786,0.009528211960477019
743.932,0.010835565942279936
745.079,0.012307731389875762
746.225,0.013596475592163728
747.372,0.016610493759681818
748.518,0.016376601124334582
749.664,0.015988923244824718
750.81,0.01536748849698857
751.955,0.01335287076599616
753.101,0.010766998747876363
754.246,0.009124372956651538
755.391,0.007558033684735918
756.536,0.006632922052782558
757.681,0.005253509724608697
758.825,0.0044219648444385855
759.97,0.0038363371937322082
761.114,0.004444788250425265
762.258,0.00457069664612845
763.402,0.004314324871169097
764.546,0.004161350350074443
765.69,0.0034361478983592816
766.833,0.003884313864761568
767.976,0.003803900997779821
769.12,0.00326279329277289
770.262,0.0037251832790311185
771.405,0.002548766406411052
772.548,0.0021917340528236438
773.69,0.0032302247239750725
774.833,0.0025093978493923477
775.975,0.0015994198763353187
777.117,0.0018239906510474583
778.259,0.002004874507710144
779.4,0.0015028129130471536
780.542,0.0008183711151976854
781.683,0.0019326532409140555
782.824,0.0006537574813495953
783.965,0.0009894341674232731
785.106,0.0013929284199919768
786.247,0.002164857031497075
787.387,0.0014966098148362424
788.528,0.001275760996027093
789.668,0.0011213468596281168
790.808,0.0007815695246394327
791.948,0.0007016682083973488
793.087,0.0009340140694701511
794.227,0.0006483689852644038
795.366,0.0018027484459726673
796.506,0.0022394173701113006
797.645,0.0018856613656688251
798.783,0.0024967269072796667
799.922,0.003893234727802633
801.061,0.003767137228034548
802.199,0.003107583464654684
803.337,0.004547494547129755
804.475,0.005158201275899507
805.613,0.00561849511633066
806.751,0.006932094381097428
807.889,0.009322059436803842
809.026,0.011052502246474544
810.163,0.014518736116677068
811.3,0.014275538591572358
812.437,0.016102710554850082
813.574,0.01612603823834316
814.711,0.015397720903261556
815.847,0.012810636679597535
816.983,0.009691685151349102
818.119,0.007013889162399592
819.255,0.006954384416644648
820.391,0.006109278350610176
821.527,0.003533067610677857
822.662,0.0026538685061531504
823.797,0.00195399969566565
824.933,0.0025729251780252506
826.067,0.0020765367053092354
827.202,0.002524323493817288
828.337,0.0024545363357540047
829.471,0.0022291984773734792
830.606,0.0023029820346749654
831.74,0.0017639389581509592
832.874,0.0015192155087071784
834.008,0.0011007582757827721
835.141,0.00010903221558114253
836.275,0.0006688911402459248
837.408,0.0003972529941272604
838.541,0.0009616576895828886
839.674,0.0013710519889764468
840.807,0.0003594283990661248
841.94,0.0007967696123995859
843.073,0.0005995966225158147
844.205,0.00085812806287276
845.337,0.0008305028682842948
846.469,0.0007785579211853586
847.601,0.0012065610303294324
848.733,0.00031502191580561853
849.864,0.00014933804992664254
850.996,0.0011945340118018441
852.127,0.0001745481431652363
853.258,0.0008491878045429877
854.389,0.0005521974462077245
855.52,0.0011783205202067183
856.65,0.0005290045599711655
857.781,0.0003511608178369541
858.911,0.0006719594749194686
860.041,0.0011761899477421875
861.171,0.0008240912707197769
862.301,0.00016316475729340996
863.431,0.0008498128177215903
864.56,4.4415967556684276e-05
865.69,0.00041079560900268307
866.819,0.0008610446294121667
867.948,0.0015682152812158642
869.077,0.0005491480219406706
870.205,0.00020404828031306613
871.334,0.0012989917030766316
872.462,0.0006074759585532809
873.59,7.472112555761209e-06
874.718,0.00030938705106561864
875.846,0.00013034996530544976
876.974,0.0008512902538388924
878.101,0.0005682688673130669
879.229,0.0012991245608042787
880.356,0.000798076369976261
881.483,3.0267259606793148e-05
882.61,0.0006733515717664573
883.737,5.0988371459876917e-05
884.863,0.00013124020905712903
885.99,0.0002927192248325172
887.116,0.0001157088012776281
888.242,0.00020656738889863213
889.368,7.784633691529091e-05
890.494,0.0002981362804803306
891.62,1.8950181378235934e-05
892.745,0.000825786418952822
893.87,0.0002555101877467393
894.996,0.00018876314421193004
896.121,0.0005449998545683307
897.246,9.07733453271341e-05
898.37,5.829952251465368e-05
899.495,0.0006366823540536339
900.619,0.00031799560147026916
901.743,0.0012550967705557887
902.867,0.0004126328762137331
903.991,0.0007823176979013287
905.115,0.0003802726613048575
906.239,0.00044969038760648276
907.362,0.0009983744257530455
908.485,0.0008386096140818577
909.608,0.000606519285937778
910.731,0.00029147860519033493
911.854,0.0007958507605970628
912.977,0.0003788899711728921
914.099,0.00010600170172057862
915.221,0.0011438104830092696
916.344,6.335669858049743e-05
917.466,0.000512687303581454
918.587,0.0010062537617905117
919.709,0.0006463896960517923
920.831,0.0012223007919978748
921.952,0.0004356553263507739
923.073,0.00029285179163083364
924.194,0.001208890889385434
925.315,0.000518909312198855
926.436,0.0009392697078276955
927.556,0.0010541169703809315
928.677,0.0002476498106039848
929.797,0.0008665945912758491
930.917,0.0008988979295005896
932.037,0.0008535822920819142
933.157,0.0008664239127352221
934.276,0.0006416354259073397
935.396,0.00013557762595903342
936.515,0.00011995152068241757
