wavelength,intensity
83.614,0.0
85.009,9.823713730403972e-06
86.404,0.00030167916938032775
87.798,0.00022549932415901638
89.193,0.0012558497926398614
90.587,0.00179621708250038
91.981,0.002395555747676383
93.375,0.0035134759446720835
94.768,0.004438878505956056
96.161,0.005934536496998973
97.554,0.007864391967516956
98.947,0.011447458208071939
100.34,0.01528609131910491
101.732,0.019962271182398565
103.124,0.024027155185027974
104.516,0.02935883762077269
105.908,0.03449012793359039
107.3,0.03773114371132015
108.691,0.04104835388073776
110.082,0.036332719151390656
111.473,0.030671622283413736
112.864,0.025896647668265698
114.254,0.022831280473894214
115.644,0.02064048078910406
117.034,0.018610778372319305
118.424,0.01809676443099025
119.813,0.018683694960215564
121.203,0.018709282194843076
122.592,0.019761306898454675
123.981,0.02125726551647256
125.369,0.022425516487664502
126.758,0.022838665230069638
128.146,0.02233603632321195
129.534,0.021954841318952603
130.922,0.01879033995517435
132.309,0.016139459778128827
133.696,0.012552097481125105
135.083,0.012294935348150916
136.47,0.009883742148954024
137.857,0.010603506161715572
139.243,0.010710766957090827
140.63,0.011102590579561944
142.016,0.01177125285540112
143.401,0.012726519312472631
144.787,0.014644640633322511
146.172,0.015600071950348042
147.557,0.016276594166935974
148.942,0.016774223938129277
150.327,0.016813169677854154
151.711,0.01643437968939455
153.096,0.01527614153599791
154.48,0.014245165569456243
155.863,0.013675991427042747
157.247,0.012909140502121302
158.63,0.011973841494774273
160.013,0.011536952918991025
161.396,0.010894774909882091
162.779,0.010155019203285175
164.161,0.009605303384267587
165.544,0.009192135246573748
166.926,0.009225291492619405
168.308,0.009397768946273994
169.689,0.009186340904072348
171.07,0.010870404729620978
172.452,0.01142961454246094
173.833,0.01144650299010309
175.213,0.012667121240805579
176.594,0.012958050571419714
177.974,0.014132842603728301
179.354,0.014750563153776942
180.734,0.013792862587972623
182.114,0.01280657336661329
183.493,0.012533599224520223
184.872,0.011209012528700595
186.251,0.011208760389947397
187.63,0.009565383031285152
189.008,0.008654808168218146
190.387,0.008515845773450305
191.765,0.0077956890060924275
193.143,0.00817202549053052
194.52,0.008311424279294283
195.898,0.009280635948946568
197.275,0.00980394993121092
198.652,0.010818289588863635
200.029,0.010682289824445879
201.405,0.010701209928580152
202.782,0.010585327927374365
204.158,0.009984655836099714
205.534,0.009549464348078383
206.909,0.008470135926788648
208.285,0.007711426174302221
209.66,0.006565392506324841
211.035,0.005544424508756302
212.41,0.004654025594767386
213.784,0.0032849800484077416
215.159,0.00265027892309559
216.533,0.0026418031819303643
217.907,0.0012125886011775397
219.281,0.0012870568121704045
220.654,0.0008917371889097403
222.027,0.0010060821134854495
223.4,0.00082518225570958
224.773,0.0007805488475711947
226.146,0.00043092937332783434
227.518,0.00024664018885031024
228.891,0.0003731459594456901
230.263,0.0005437420700956422
231.634,4.0778594507747984e-05
233.006,0.00011524680550061285
234.377,0.00010155858049521778
235.748,6.889206548942728e-05
237.119,0.00011869431806839035
238.49,0.0007415303755136623
239.86,0.0004186812485089792
241.231,0.001158902442034878
242.601,0.001292439004786766
243.97,0.0015863309657509889
245.34,0.0019824021564490727
246.709,0.0027133960413723264
248.079,0.003605918739474725
249.448,0.004553339802264011
250.816,0.005785415819770521
252.185,0.006992011276737408
253.553,0.00825312204143921
254.921,0.010716827984811954
256.289,0.011861038495650818
257.657,0.013993225617966579
259.024,0.01500279403459722
260.391,0.01634403643459451
261.758,0.01750867503326466
263.125,0.01843181319459202
264.492,0.019485471951277235
265.858,0.01922951232620292
267.224,0.01916993484811532
268.59,0.017244385131690427
269.956,0.017013935160088794
271.321,0.015258535462673575
272.687,0.013024266087067493
274.052,0.012217882714937763
275.416,0.013589895740469671
276.781,0.013469552822861134
278.146,0.01467408753040284
279.51,0.017009391813709036
280.874,0.01883651528876499
282.237,0.02178945769214282
283.601,0.024452440529341892
284.964,0.02571985961169584
286.327,0.026988030261487213
287.69,0.026472600464082504
289.053,0.024042676264816237
290.416,0.02245706292474743
291.778,0.018210197776996704
293.14,0.01597131232267821
294.502,0.011386411536864741
295.863,0.009410686208553263
297.225,0.0072124241864328555
298.586,0.0045297842241286196
299.947,0.0036270935459212566
301.308,0.002496930072928879
302.668,0.0019878376861093804
304.029,0.001091227430911853
305.389,0.0006265454064106022
306.749,0.0002737305583526632
308.108,0.00016368653904786642
309.468,0.0004066949600876768
310.827,0.00012342676851304695
312.186,0.0013139289846747968
313.545,0.00020120187623055917
314.903,0.0003635113497801853
316.262,0.0011463100508414628
317.62,0.0005132478274251039
318.978,0.0003116144060208005
320.336,0.00042015044162858065
321.693,4.7906363107794305e-06
323.051,0.0008953883520089478
324.408,0.00082607443899013
325.765,0.0020030435924561457
327.121,0.002205530406563584
328.478,0.002325732708328991
329.834,0.0030182366428119943
331.19,0.003230828402336097
332.546,0.0017949612375565622
333.902,0.0017120512271537106
335.257,0.0005431505137900601
336.612,0.0002619479204627907
337.967,0.0007566344565947127
339.322,0.001071933967469959
340.677,0.0002817989984550285
342.031,0.00089776427487563
343.385,0.0009028555381613772
344.739,0.0013201742676386468
346.093,0.0011655065378398187
347.446,0.0009091590069913502
348.799,0.000803202544781682
350.153,0.0002124365972144417
351.505,0.00037837783857456764
352.858,0.00016439446708569415
354.21,0.0008911844231815736
355.563,0.0013514346242131357
356.915,0.0005801761199328858
358.267,0.0011521383350980993
359.618,0.0007205301266654986
360.969,0.0011229096350157323
362.321,0.001534720102500041
363.672,0.0015392295071245603
365.022,0.0027896534677484684
366.373,0.0034290821946830995
367.723,0.004888102485357343
369.073,0.005842932548432935
370.423,0.0068221036988365775
371.773,0.006933408411907368
373.122,0.006290294580118291
374.471,0.006545206859602397
375.821,0.0034511200914771204
377.169,0.0032906822632877784
378.518,0.0008507500950483857
379.866,0.00035979715199267823
381.215,0.0007753363637310247
382.563,0.00021508890294520724
383.91,0.0003473259813536856
385.258,0.0003341808244321036
386.605,0.00016596063664883355
387.952,0.00024336723388090122
389.299,4.1054977371831414e-05
390.646,0.00017476609772208807
391.992,0.0001535525006981407
393.339,0.0002880103396636403
394.685,8.300698684638975e-05
396.031,0.00246244524960675
397.376,0.002178949163389806
398.722,0.004039219186847064
400.067,0.00433694171733104
401.412,0.00554103033323247
402.757,0.006916010837936643
404.101,0.006152888657269235
405.446,0.005460927790870045
406.79,0.0051776159598958225
408.134,0.005141739524608923
409.478,0.00433961826717269
410.821,0.00455091539117556
412.165,0.004272757858175385
413.508,0.0035233723907351407
414.851,0.0038676096723621396
416.193,0.002247099359086167
417.536,0.0016013720121437396
418.878,0.0012952125310719542
420.22,0.0004461304308524229
421.562,0.00017786449509312862
422.904,7.66792739055323e-05
424.245,0.0001614706273130221
425.586,0.0003755752193563181
426.927,0.0002440121272304292
428.268,6.258859665945434e-05
429.609,0.0006554637818736472
430.949,0.00014812666868218707
432.289,0.00035489984159400693
433.629,0.000563200393491551
434.969,0.0014290012325770412
436.309,0.0014845347929691027
437.648,0.002049718354731007
438.987,0.002873998729515683
440.326,0.0026607038907759295
441.665,0.00414223726281753
443.003,0.0063227525957704755
444.342,0.008515516053542276
445.68,0.011429119962598896
447.018,0.014631548813444877
448.355,0.01763821616654278
449.693,0.021814850973883256
451.03,0.02606482421664938
452.367,0.029878194964140688
453.704,0.029470830866592596
455.041,0.030088182906155794
456.377,0.027701718700061103
457.713,0.024790287063339734
459.049,0.020970768009328112
460.385,0.01943557757107691
461.721,0.019350107382564652
463.056,0.01874928497780252
464.391,0.019696419960083367
465.726,0.024888834525263095
467.061,0.028943860872406864
468.395,0.03526500850803678
469.73,0.04588512188570824
471.064,0.054788621294557534
472.398,0.0676384655502775
473.731,0.07543574981886612
475.065,0.08356389346869568
476.398,0.08641125761799363
477.731,0.08280995495723133
479.064,0.07479449308597079
480.397,0.06498713443276952
481.729,0.05340078171344021
483.062,0.04369317303006216
484.394,0.035256144861097405
485.725,0.02843851177630793
487.057,0.02288144153931427
488.389,0.01975835396574894
489.72,0.016693331037752016
491.051,0.015092516640158619
492.382,0.01473771862383033
493.712,0.014940413937291374
495.043,0.015530879257883646
496.373,0.01733341435568053
497.703,0.02102166124689688
499.032,0.026146686881462017
500.362,0.03378625351110255
501.691,0.0435332006888018
503.02,0.055830114356400895
504.349,0.07069109973761244
505.678,0.08496790872059515
507.007,0.09880580232012465
508.335,0.1098519865513027
509.663,0.11947108483466357
510.991,0.1262533118199173
512.319,0.12505011053847426
513.646,0.11920381290745055
514.973,0.10207873789424497
516.3,0.08530982826522159
517.627,0.06693711736414382
518.954,0.05088577523143584
520.28,0.0408263069179687
521.607,0.030853273708627026
522.933,0.02521414200511147
524.259,0.019976245487912398
525.584,0.01695923074828898
526.91,0.014442338074457797
528.235,0.012158402213293703
529.56,0.010387049890916477
530.885,0.007940440894539491
532.209,0.007072317469631264
533.534,0.007074867950096314
534.858,0.007094015948872902
536.182,0.005344943964398542
537.506,0.005436703075274241
538.829,0.005007461092063969
540.152,0.004183379518988545
541.476,0.004364196946787408
542.799,0.00365274381523707
544.121,0.004236580795913518
545.444,0.003453951803628431
546.766,0.0028327546480789523
548.088,0.003121497159891305
549.41,0.0018488607448750075
550.732,0.0028915854075513073
552.053,0.0024347245332214
553.375,0.0014937572527495707
554.696,0.002010927777315789
556.017,0.002037261730558545
557.337,0.0024719440922513014
558.658,0.002338325099522406
559.978,0.0008698253614923191
561.298,0.0019835561761271754
562.618,0.0011657441301264869
563.938,0.0008887745585596531
565.257,0.0016902315273576503
566.576,0.001206571212856004
567.895,0.001349335084210537
569.214,0.0021268243249881066
570.533,0.0017202311901661448
571.851,0.0018365883759452679
573.17,0.003117036243488555
574.488,0.0023656385148448965
575.805,0.0023753458568430545
577.123,0.0023266782286534868
578.44,0.0029033292548637647
579.758,0.0032964620593226458
581.075,0.0027108504097294525
582.391,0.003288553630352118
583.708,0.0024370422702219593
585.024,0.0014327057327201947
586.341,0.0022828206320634056
587.657,0.002327206750270769
588.972,0.0018631114332529235
590.288,0.0009562507679734248
591.603,0.00013545669633394146
592.918,0.001205577204309739
594.233,3.054757971448422e-07
595.548,0.001466274128650889
596.863,4.025007289046564e-05
598.177,0.0005910908186530928
599.491,0.0004899977250868577
600.805,0.00046135573248789596
602.119,0.0001348748376727132
603.432,0.00010904031311417796
604.746,0.000727003304271663
606.059,0.00012464867170162633
607.372,0.00014835456332450148
608.685,0.0011151709148213963
609.997,0.00015731033788523994
611.309,0.0006013218334463566
612.621,0.0006137833064409954
613.933,0.0009002323253636731
615.245,0.0006927075850144334
616.557,0.0005285798031484689
617.868,0.0013484816915074025
619.179,0.0018239232524191993
620.49,0.0008057287811358481
621.801,0.001702600872730928
623.111,0.0008634006721079235
624.421,0.0019974383540196467
625.731,0.0009299216635528456
627.041,0.0024466477869544024
628.351,0.0011896585211029688
629.66,0.0009556155722682506
630.97,0.0033688307303129123
632.279,0.002286079040566284
633.588,0.002250508081076529
634.896,0.0021905426972147787
636.205,0.0027172702502916714
637.513,0.001842581520155919
638.821,0.002790904463870109
640.129,0.0038942587990463944
641.437,0.004279788650331893
642.744,0.003443240755439654
644.051,0.004318113740818128
645.358,0.005013405748052851
646.665,0.006455222417643445
647.972,0.0056081913692047425
649.278,0.005507694680766267
650.584,0.005673689259170339
651.89,0.0068965331192520265
653.196,0.004739563666790118
654.502,0.005094085300254328
655.807,0.0035283424334664653
657.113,0.00394574844174292
658.418,0.003926789547031232
659.722,0.003956192804711967
661.027,0.002109097031109352
662.331,0.0012366096662419133
663.636,0.0015182195606320426
664.94,0.000830142600796551
666.244,0.0009406811999633918
667.547,0.0008600501359836841
668.851,0.0009524056519871414
670.154,0.0007730089290861117
671.457,0.00028792790968663293
672.76,0.0010292740299575728
674.062,0.0005582109554715186
675.365,0.00037297140184732163
676.667,0.0011766054918027479
677.969,0.0013556530995070407
679.271,0.0004909044548339383
680.572,0.00015442528868998308
681.874,0.0005303690185317458
683.175,0.00011968832661465532
684.476,0.00046412440995090715
685.777,0.000528870732479083
687.077,0.0005933552186097061
688.378,0.0015885856680632482
689.678,0.0003062225157600852
690.978,0.0007142557507685871
692.278,0.0010437380665112724
693.577,0.0012992079605457214
694.877,0.0006042553708633824
696.176,0.0010924347876339017
697.475,0.00013584460210809364
698.774,0.00154916959258721
700.072,0.0008901564728800702
701.371,0.0008063542791966685
702.669,0.0003644471724603275
703.967,0.0001000942361977933
705.265,0.0026842788642000284
706.562,0.0014771015485719114
707.86,7.26111120991113e-05
709.157,0.0021679908252700067
710.454,0.0011217168247602144
711.751,0.002633603823629223
713.047,0.0011801936202136556
714.344,0.002480012532353667
715.64,0.0008075567870965403
716.936,0.0011042416696346587
718.232,0.0025736917768114185
719.527,0.0010001374574965672
720.823,0.0017625662565926782
722.118,0.0016455884215749114
723.413,0.0012972199434531917
724.708,0.0013692055574914827
726.002,0.002546315326800628
727.297,0.00047676528936609134
728.591,0.002411333815040023
729.885,0.0031708921114074083
731.179,0.0023771738628037466
732.472,0.002239292755381354
733.766,0.002741281617711691
735.059,0.00392676045409817
736.352,0.004108392484022752
737.645,0.0039323947854677304
738.937,0.006402772708155893
740.23,0.0067451189491339
741.522,0.008564789784503956
742.814,0.009906361904409272
744.106,0.011989697143292743
745.397,0.012928797627226464
746.689,0.014229692977889749
747.98,0.016397009816877167
749.271,0.01609805083673808
750.562,0.016424948730260475
751.853,0.013769142149883219
753.143,0.013486979489764923
754.433,0.012050564408079396
755.723,0.011735788569999257
757.013,0.012715779171350795
758.303,0.012058453441761216
759.592,0.012915424575662568
760.881,0.013730652199442967
762.17,0.014566894618538063
763.459,0.01445120657021935
764.748,0.01219426895093625
766.036,0.01362939424592272
767.325,0.010591117421053587
768.613,0.008098924647391542
769.901,0.006855061143172982
771.188,0.005714128436125704
772.476,0.0062326420844349235
773.763,0.003477439498253346
775.05,0.005216964151861385
776.337,0.004295629752383833
777.624,0.004012948268292608
778.91,0.00275771912489139
780.196,0.002525601158460902
781.482,0.002781235912449366
782.768,0.0021538031715803907
784.054,0.002287771279506023
785.339,0.0029386044362007284
786.625,0.0018651576362115761
787.91,0.0039768390895412176
789.195,0.0018602409305241974
790.479,0.0029243585966449897
791.764,0.002427034301248833
793.048,0.001948998620472393
794.332,0.0028915369193295384
795.616,0.0033781792594699796
796.9,0.0033604325703025175
798.183,0.002983756668312042
799.467,0.004706509246010176
800.75,0.0035586572697164586
802.033,0.0038120179261039553
803.316,0.006266617781428478
804.598,0.004255350586560305
805.88,0.008702612706060226
807.163,0.010221069858978938
808.445,0.011880050727406452
809.726,0.014435966722117347
811.008,0.017515783406576
812.289,0.017729509790489498
813.57,0.019703247101708447
814.851,0.01893730290653408
816.132,0.015247421962244117
817.413,0.01144094623988836
818.693,0.010708643172977343
819.973,0.0072185046094426905
821.253,0.005174595143679612
822.533,0.0051466562302963014
823.813,0.004232376867086143
825.092,0.0030588115867883126
826.371,0.003529166733236539
827.65,0.002280614417972915
828.929,0.002490170814814277
830.208,0.0018182210375391624
831.486,0.0006915244724032692
832.764,0.001824946353898526
834.042,0.0011505139796688369
835.32,0.0015922804705620478
836.598,0.0013984972922621492
837.875,0.0003746296990318222
839.152,0.0009116561504124548
840.429,0.0022401849386619044
841.706,0.0008883575598524396
842.983,0.0004888873448083469
844.259,0.0021326671557112737
845.536,0.00044787115801393085
846.812,0.000419534641212114
848.088,9.206943549502007e-05
849.363,0.00046475960565608136
850.639,0.0017751441013195627
851.914,0.00016943239332749556
853.189,5.105324870060387e-05
854.464,0.00045761729058950434
855.739,0.001920371174339962
857.013,9.187063378576707e-05
858.288,0.00019170788240818455
859.562,3.466907856485114e-05
860.836,0.00048109528757006505
862.11,0.0004656760330475159
863.383,0.0008255992544167936
864.656,0.00037683591312231274
865.93,0.0003905095916611771
867.203,0.0005646986795442138
868.475,0.0007647707802075548
869.748,0.0005670115677225962
871.02,0.0006602641158287803
872.292,0.00018484195020569097
873.564,0.0005123265512114925
874.836,0.0004962963450946536
876.108,5.9955686217396414e-05
877.379,0.00039344797790037987
878.65,0.0008678373443997892
879.922,1.4434943620638019e-05
881.192,7.357602771231485e-05
882.463,0.0004034365515847985
883.733,7.161710355284634e-05
885.004,0.0004278794641785628
886.274,0.0010049474890960542
887.544,0.0008352872011262442
888.813,0.0008704508595531394
890.083,7.404151464129746e-05
891.352,0.0003067898279547827
892.621,0.0001516129718273798
893.89,0.00011026221630275733
895.159,3.0246952739516283e-05
896.427,3.5023042583765005e-05
897.695,3.2220423365515496e-05
898.964,0.00027226136523306177
900.232,0.00047091276099857035
901.499,0.0004514495887804847
902.767,0.0005663957673061296
904.034,0.000809704815320908
905.301,0.000669855086094693
906.568,0.0009951528682987116
907.835,0.0012525865353148061
909.102,0.000656666289773519
910.368,0.0008705526848188543
911.634,0.0020301339619584985
912.9,0.0007509031487816143
914.166,0.0021676514077176236
915.432,0.0010194745603380535
916.697,0.0005746242185403327
917.962,0.001884712936051023
919.227,0.0013185402145650309
920.492,0.002003426649408121
921.757,0.00038538438662019144
923.021,0.0012015138913254947
924.285,0.001809158588890532
925.55,0.0011997877106305177
926.813,0.0005419867964676036
928.077,0.0011012305510628023
929.341,0.0008022424779906554
930.604,0.0009590533871916744
931.867,0.00017037306482981462
933.13,0.00015283487501595915
934.393,0.0016234438506929987
935.655,0.00016074815280866364
936.918,0.0024267967089621647
938.18,0.00011069861029867853
939.442,0.00062149293370227
940.703,0.0014329239297181551
941.965,0.0013036785745928255
943.226,0.001882875232445977
944.488,0.0015494459754512933
945.749,0.0022638956791069566
947.009,0.0015576356361080813
948.27,0.0011859540209598156
949.53,0.0007948868147482946
950.791,0.001625708250649612
952.051,0.0011667575339614595
953.311,0.0013773661252152092
954.57,0.0014661820010295277
955.83,0.0016765772441074934
957.089,0.0010626775659342525
958.348,0.0015300700820323919
959.607,0.0014253258253669491
960.866,0.0006417610104017214
962.124,0.0001999363336423877
963.383,0.0012663668879415626
964.641,0.001064646187738075
965.899,0.0018134594941614443
967.156,0.0013112960742327389
968.414,0.0011970335796340373
969.671,0.0028525863307824824
970.928,0.0010024745897858343
972.185,0.002813228441172567
973.442,0.0010455854677606721
974.699,0.0026575812492940043
975.955,0.0018211012379122423
977.211,0.0012561843613700678
978.468,0.0027813037959598425
979.723,0.002895580837025075
980.979,0.0019189601670864835
982.234,0.004060195191584344
983.49,0.002171021339130571
984.745,0.0033134668786970424
