wavelength,intensity
137.683,0.0
138.921,0.002165018012393348
140.158,0.005376897702544328
141.395,0.00785178502985701
142.633,0.012171925578345082
143.869,0.016404321840719934
145.106,0.024901058405971066
146.343,0.03238293648959655
147.579,0.04172314021898637
148.815,0.048213996630807866
150.051,0.049947183873830694
151.287,0.04942098969119327
152.522,0.04297282715863939
153.758,0.035768083506534744
154.993,0.029547631361052554
156.228,0.02366942848010483
157.462,0.018447222751470215
158.697,0.013793012901460107
159.931,0.009898642579503644
161.166,0.006269386458891489
162.4,0.0032911283549280535
163.633,0.0012866994539759667
164.867,0.00021214542544271872
166.1,0.0006697246527781344
167.334,0.0010320795584691286
168.567,0.0004743132884794537
169.8,0.000764570038969431
171.032,0.0008110411507128623
172.265,0.0017271940988121761
173.497,0.0028210723808081415
174.729,0.00544353021689932
175.961,0.007105124600480185
177.193,0.01049692905026726
178.424,0.012649718818012677
179.655,0.013100213188824313
180.887,0.013384824504141943
182.117,0.01094725856112488
183.348,0.008973608528705117
184.579,0.007793667047244659
185.809,0.007255394448564562
187.039,0.006585573304225109
188.269,0.00666513277850372
189.499,0.007053954980047335
190.729,0.00783010594590408
191.958,0.00802672083635529
193.187,0.008741383888186736
194.416,0.010536257846944116
195.645,0.012113608794023479
196.874,0.013211372437229797
198.102,0.014382169040064617
199.331,0.01577616177652442
200.559,0.014377276578488122
201.787,0.012847565309296823
203.014,0.00993592032439967
204.242,0.007654617373677633
205.469,0.004733293169950949
206.696,0.0035769722408430537
207.923,0.0010872819443065076
209.15,0.00042082471884050067
210.376,0.0009719948935818266
211.603,0.00032737598738903894
212.829,0.00033034021785044465
214.055,0.00037469462476077096
215.281,0.0006258675410702712
216.506,0.0009695467232647085
217.732,0.00068560648493636
218.957,0.0007100542463523013
220.182,0.0005243118698683595
221.407,0.0004970420939454613
222.632,0.00030281936991522634
223.856,0.0007386686006648545
225.08,0.0001027864962232965
226.304,0.00023231254966444705
227.528,0.00020607494251834594
228.752,0.0007928958883624586
229.976,0.0004816907229333887
231.199,0.00017575084501799516
232.422,0.0004538478647174023
233.645,0.0006300389827890602
234.868,9.835438182427723e-05
236.091,0.0005026720613750624
237.313,0.0005047934210774571
238.535,0.00011931700381234815
239.757,0.00021415317724150865
240.979,6.512288205843407e-05
242.201,0.0006770546172629575
243.422,0.0011358792645745105
244.643,0.0020340101104067143
245.864,0.00305309579520618
247.085,0.003761033530678264
248.306,0.006126229832940626
249.527,0.006865840074872235
250.747,0.0077826699185474454
251.967,0.011596607978233454
253.187,0.013522225578168824
254.407,0.017613390196997043
255.626,0.021033972406404033
256.846,0.02496219235597745
258.065,0.026129745096775923
259.284,0.030146834259207604
260.503,0.03049196857293733
261.722,0.026816013445939427
262.94,0.02704882964276339
264.158,0.027550639098673183
265.376,0.028154845981314798
266.594,0.027469489210720545
267.812,0.025072730955144288
269.029,0.02280711879298671
270.247,0.020478699837171717
271.464,0.01881962684112284
272.681,0.01776168657445542
273.898,0.015395471049771473
275.114,0.017116672004372998
276.331,0.01836292597792477
277.547,0.019691808730193133
278.763,0.02369746436993168
279.979,0.02656484930599807
281.194,0.03142283090799249
282.41,0.03516860907433779
283.625,0.04037696171801299
284.84,0.044188334750767416
286.055,0.044127642043579135
287.27,0.04201927233579632
288.485,0.03752077271235307
289.699,0.03200551386899084
290.913,0.027562382945985637
292.127,0.02397239258736204
293.341,0.02066281931287305
294.554,0.018089345733059592
295.768,0.016465101826707403
296.981,0.015799600982927566
298.194,0.014666984005913678
299.407,0.013370845349805935
300.62,0.012111683811619249
301.832,0.010123904311375992
303.045,0.007475273987820549
304.257,0.006289378152726857
305.469,0.005382837509711034
306.68,0.0047313235783826915
307.892,0.003175883973838529
309.103,0.002297252666390738
310.315,0.0018917602142029327
311.526,0.0013280186921564394
312.736,0.002545906086208898
313.947,0.001692968202594294
315.158,0.0018381298165153052
316.368,0.003456168685127711
317.578,0.0025856344258331286
318.788,0.001748123554856557
319.998,0.0018635575248931984
321.207,0.0030725715743619257
322.417,0.003062315345693342
323.626,0.0038237603187697596
324.835,0.003956080312037463
326.043,0.006175105960483801
327.252,0.007057756456634027
328.461,0.007812514419046278
329.669,0.008933149956461044
330.877,0.009595770599867798
332.085,0.010207473761594903
333.292,0.008649852671953352
334.5,0.008588704175480438
335.707,0.0067612170387612155
336.914,0.006019434524494355
338.121,0.004429048488756822
339.328,0.003362383736346503
340.535,0.0032267776962895127
341.741,0.00296514931320818
342.947,0.0035327456488853104
344.154,0.002907588460263956
345.359,0.0034413380776174376
346.565,0.0034175579990152563
347.771,0.003355034376572972
348.976,0.003956866306112339
350.181,0.004505408225280896
351.386,0.004200206871471267
352.591,0.0057814349367632835
353.795,0.006371648118602357
355.0,0.007588377613918971
356.204,0.007619943446290605
357.408,0.007966653627227824
358.612,0.0072379289910833615
359.815,0.007244028809381904
361.019,0.006702483255732398
362.222,0.006796933462916277
363.425,0.0069490701075387625
364.628,0.007640788532829109
365.831,0.007942331935188483
367.034,0.0093517099844156
368.236,0.010507160065060524
369.438,0.012823704255364284
370.64,0.01578180095671616
371.842,0.017780155738127242
373.044,0.01780882197483709
374.245,0.016482227866636223
375.447,0.013454240242426477
376.648,0.009742854771781951
377.849,0.007168489008687943
379.049,0.0043119857993509595
380.25,0.0027936508367511063
381.45,0.002457727830510842
382.651,0.0014529893256506122
383.851,0.0012244788829197395
385.05,0.000903187682480495
386.25,0.000590107477515617
387.45,0.000518161138936959
388.649,0.00029358105448623975
389.848,0.0008530896517487409
391.047,0.0010339638107670728
392.246,0.0018433859397550673
393.444,0.003793047879101261
394.643,0.004747356693792836
395.841,0.005680176983243033
397.039,0.008202093036849491
398.237,0.010025851429314675
399.434,0.012305437896986089
400.632,0.016815564996009544
401.829,0.01844070593446446
403.026,0.02102114242292395
404.223,0.021017268214004604
405.42,0.018865453059516743
406.617,0.015128165180803206
407.813,0.012045574970059364
409.009,0.010708643172977343
410.205,0.008339028623947387
411.401,0.007487206939197906
412.597,0.006897318628444685
413.792,0.005691770517068007
414.988,0.005179822173986313
416.183,0.004241279789485152
417.378,0.002376727771163472
418.573,0.0020396492905984513
419.767,0.00016074980140820378
420.962,0.0003118967044479397
422.156,0.00024142780198658386
423.35,0.0002945943613447688
424.544,0.0003378454672569628
425.738,0.0004854597124114948
426.931,0.0007591723301221034
428.124,0.000921635996216955
429.318,0.00011791540327389278
430.511,0.0004961707606002719
431.703,0.000916171858505804
432.896,0.0006457457724666997
434.089,0.0003847711075912568
435.281,0.0004435819868926866
436.473,0.0010306966743842759
437.665,0.0017048347251078268
438.857,0.0026842206783339053
440.048,0.0038718790602889023
441.239,0.0030906979263058396
442.431,0.00541740476301017
443.622,0.007506316147397077
444.812,0.007912492283511825
446.003,0.010878671971432599
447.194,0.012967049985380046
448.384,0.017135398155620193
449.574,0.02029988012410974
450.764,0.02352724161858935
451.954,0.026237524716124106
453.143,0.030933778703230132
454.333,0.03205461789117633
455.522,0.03250725059256798
456.711,0.030585667212683788
457.9,0.026648598162637524
459.089,0.024588416049648763
460.277,0.023301431969811014
461.465,0.023907394126080662
462.654,0.025787786761572066
463.842,0.028959023139354036
465.029,0.035582048746073534
466.217,0.043362163335333756
467.405,0.05127076686345971
468.592,0.06190195495098321
469.779,0.07451374143310598
470.966,0.08849182902823627
472.153,0.10405911809184629
473.339,0.11995549671660263
474.525,0.13241410890615707
475.712,0.1386535732833949
476.898,0.13182851665185258
478.084,0.12010134928768386
479.269,0.1007034422160993
480.455,0.08356513476717296
481.64,0.06967083481925955
482.825,0.05891857164197879
484.01,0.04896646110033044
485.195,0.041651440685456516
486.38,0.03660648365149856
487.564,0.03038256944698206
488.748,0.025265035242680235
489.932,0.022048302366412392
491.116,0.01855042993150558
492.3,0.016599414201007596
493.484,0.01524971545513379
494.667,0.015175344220584464
495.85,0.015789602711598797
497.033,0.017485347349771585
498.216,0.01990869654616597
499.399,0.022555280666762764
500.581,0.031912940155989424
501.763,0.034099463179619545
502.946,0.04268670301080257
504.128,0.05471226689173785
505.309,0.06955562680433634
506.491,0.08684332646453304
507.672,0.10401998809687868
508.854,0.12631753931847256
510.035,0.15053086018216053
511.216,0.17519550941407452
512.396,0.1929559692365192
513.577,0.19722734518037416
514.757,0.18951277212047912
515.938,0.16969587832458843
517.118,0.1402255614331466
518.297,0.11169155210406458
519.477,0.08738605513079371
520.657,0.06813346725985091
521.836,0.0521446700844028
523.015,0.04131535427390889
524.194,0.03286242681702607
525.373,0.02784291155303032
526.551,0.023260149097796865
527.73,0.01983649273512972
528.908,0.01635866533110222
530.086,0.013802123838330505
531.264,0.012219526465655732
532.442,0.010828413929569005
533.62,0.00983502118372051
534.797,0.008502278768999331
535.974,0.007470265154511809
537.151,0.005910336025514054
538.328,0.006173117943391271
539.505,0.004942549909581778
540.681,0.006136480243022597
541.858,0.004047819542742236
543.034,0.004427306306948661
544.21,0.003764381157509197
545.386,0.0032130550446466616
546.561,0.0034715767873592534
547.737,0.003124062186822886
548.912,0.0032130264365958176
550.087,0.0023710929549116935
551.262,0.0024262769152248007
552.437,0.002093639955773823
553.612,0.002541739493312286
554.786,0.0021076181403453967
555.96,0.0018632830815579857
557.134,0.0014631320918802562
558.308,0.0016982524490026822
559.482,0.0019770975449875418
560.656,0.0012571517013943599
561.829,0.0020103483430656487
563.002,0.0023277852147564736
564.175,0.0010770543236887679
565.348,0.0015746928227619878
566.521,0.0012325764159551661
567.693,0.0010830203144952283
568.866,0.0018411128119185357
570.038,0.0016391671263660398
571.21,0.0015501931789487539
572.382,0.0011246236936552673
573.553,0.0022148702078407328
574.725,0.0017826714128669856
575.896,0.002039204168722612
577.067,0.0013648488907655359
578.238,0.0017254611297661513
579.409,0.0030808489987001154
580.58,0.0019364130176300256
581.75,0.0033329688414925427
582.921,0.002877501518656277
584.091,0.0029555467057690425
585.261,0.0024907507339466347
586.43,0.0024478784180229003
587.6,0.001464486367914265
588.769,0.0017758243910709819
589.939,0.0005016824167687567
591.108,0.0002361717272350436
592.277,0.00020861300999862366
593.445,0.0007721652340273306
594.614,0.0005263057055475017
595.782,0.00024310403981313893
596.95,0.00048581997989923865
598.119,0.0003561516620154178
599.286,0.00010133281933466122
600.454,0.0004641610670465646
601.622,0.0015385729766018077
602.789,0.0005286161693147957
603.956,0.00011029174562981466
605.123,0.0007100207894792806
606.29,0.0009268921194567171
607.457,0.0008579859923829769
608.623,0.0005515535226226318
609.789,0.0002937230764878012
610.956,0.00015716055776819542
612.122,0.00012719633984981433
613.287,0.00011127668687860882
614.453,0.00010754537274881723
615.618,2.691475001192769e-05
616.784,0.0012157665192322814
617.949,0.00033960694737738786
619.114,0.0013351876757449893
620.279,0.0011477409382658664
621.443,0.001838006656432012
622.608,0.0013694989112331853
623.772,0.0024187665745549966
624.936,0.0020039464431454847
626.1,0.003000227632364762
627.264,0.0024595083180142
628.427,0.0025831624962873436
629.591,0.0029980587542050336
630.754,0.003122092110372411
631.917,0.0026691912691143792
633.08,0.0029391819309219974
634.243,0.0026031546750049294
635.405,0.0029702822763646485
636.568,0.003545985357839342
637.73,0.003796911905494034
638.892,0.004358229501334294
640.054,0.004721635146791023
641.215,0.005593426705676076
642.377,0.005170662748894145
643.538,0.00644990810853756
644.7,0.00663822666424409
645.861,0.008877674581935105
647.021,0.009972873198209841
648.182,0.009860763580657685
649.343,0.00978749787756469
650.503,0.011688851971326842
651.663,0.010612006146991681
652.823,0.011988703134746478
653.983,0.011217430083999698
655.143,0.010737130003266643
656.302,0.009513718830990258
657.462,0.007492889758789235
658.621,0.008103695888413613
659.78,0.005654938863812258
660.939,0.005363941649687646
662.097,0.004272863562498842
663.256,0.0036764584347398635
664.414,0.003327371846053745
665.572,0.0025941765958621774
666.73,0.0021831724875058874
667.888,0.0016644527642541494
669.046,0.0011457519514089013
670.203,0.0007967885228060758
671.36,0.002047964535749621
672.518,0.0003171338203047683
673.674,0.0012580230347395492
674.831,0.001355226888037691
675.988,5.5979264126562405e-05
677.144,0.0015351259489162477
678.301,0.00020195533470862803
679.457,0.00011979053978614442
680.613,0.0007213287276780344
681.769,0.00045977632564021364
682.924,0.0011049728720189356
684.08,0.0007998093390222858
685.235,0.0005140604900219528
686.39,0.0007277495380046883
687.545,0.0005439297195138883
688.7,0.0006993383493413472
689.854,0.000563940808637964
691.009,0.0005400564803589789
692.163,0.0005016256855492869
693.317,3.622411038345023e-05
694.471,0.0004095360789540109
695.625,0.0006476019015960179
696.778,0.00027917660995709445
697.932,0.0007787664205389654
699.085,0.0008986705197404929
700.238,0.0013123167513009767
701.391,0.0009233786629073338
702.544,0.0006481983067237768
703.697,0.0006202138144120031
704.849,0.0010082994798669468
706.001,0.0012833658887293465
707.153,0.0018822046403389114
708.305,0.0024935824460979453
709.457,0.0030724295038721426
710.609,0.003822093778587558
711.76,0.002552289075722572
712.911,0.002077748910853461
714.062,0.002787675148300292
715.213,0.002128831737369344
716.364,0.0016687716101671162
717.515,0.0016305299194223236
718.665,0.0021843468722371334
719.815,0.001125684131065356
720.965,0.0019148871564578858
722.115,0.001683166308563686
723.265,0.0019897689719824405
724.415,0.0031020436853175727
725.564,0.006208330090039935
726.713,0.004507472853763821
727.863,0.006345449932380554
729.011,0.005196536064030095
730.16,0.0035802965933275383
731.309,0.004125343966353202
732.457,0.003291924046647283
733.606,0.0027398211524720085
734.754,0.00328804110984802
735.902,0.003879616325836585
737.049,0.004306094965288241
738.197,0.004664841377515184
739.344,0.006194229715149504
740.492,0.007613586640416686
741.639,0.008297944553642495
742.786,0.010520436140180882
743.932,0.012732192434419608
745.079,0.014916509243959245
746.225,0.015594209724336165
747.372,0.017756716531724098
748.518,0.01787942567455496
749.664,0.017922759598349935
750.81,0.01767428655471676
751.955,0.013842858793438663
753.101,0.012033006822976835
754.246,0.010078145976492566
755.391,0.00813319127371571
756.536,0.006348102238111319
757.681,0.005498772847960767
758.825,0.004508788824102633
759.97,0.0042848721555021575
761.114,0.0039736097739714
762.258,0.0038373501126849636
763.402,0.003293259412274802
764.546,0.0038158620723258035
765.69,0.0044208282805203196
766.833,0.0033851028926563786
767.976,0.0030396054021456028
769.12,0.003178923700461229
770.262,0.002293057465443282
771.405,0.0029219836435427434
772.548,0.002585927779574832
773.69,0.0023807430808081647
774.833,0.0010941861822041988
775.975,0.0021059229921123516
777.117,0.0002810138771681445
778.259,0.0015398986445849727
779.4,0.0006991584580385841
780.542,0.0013033105489895986
781.683,0.0015582713166954732
782.824,0.00041671461472224944
783.965,0.0006812406054482773
785.106,0.000902060816206583
786.247,0.0005942934657009367
787.387,0.00028644984322244785
788.528,0.0009490623890961674
789.668,0.0016884035213969582
790.808,0.0009681924472306998
791.948,0.001285543979651211
793.087,0.00020636853870115737
794.227,0.0002908062190190639
795.366,0.0010442864682994799
796.506,0.000532148536270669
797.645,0.0012515357955490717
798.783,0.00017678311077123584
799.922,0.0007262721018873861
801.061,0.0012853829987549378
802.199,0.0011316316963475442
803.337,0.0010651024619049215
804.475,0.002390099852962933
805.613,0.00159124718655615
806.751,0.0031245829503246856
807.889,0.0029219836435427434
809.026,0.0029762962705106605
810.163,0.00285597517260192
811.3,0.0026636228817264246
812.437,0.0035703240207563026
813.574,0.0029352703860718904
814.711,0.0024461362362147394
815.847,0.004007968043034712
816.983,0.0024422436017711223
818.119,0.002680205368689213
819.255,0.0021471190702095307
820.391,0.0007266415821372661
821.527,0.0013474328912705382
822.662,0.0016238724865734367
823.797,0.001798430084941918
824.933,0.0018419749325015887
826.067,0.0014538984798087814
827.202,0.001390627168986819
828.337,0.0012981867985952659
829.471,0.00122021725310846
830.606,1.2055762345453035e-05
831.74,0.0005780896717501648
832.874,0.0018089326337770882
834.008,0.0003825550019035254
835.141,0.0009586557837731684
836.275,0.00045825156501846497
837.408,0.00020021281348291467
838.541,0.000358557162697379
839.674,0.0008207484927110205
840.807,0.0006220321227283415
841.94,0.0003385557712176572
843.073,0.0015241971886117277
844.205,0.0004938316887821342
845.337,0.00036688157212246307
846.469,0.0002460682702745446
847.601,0.0003484522657689365
848.733,0.0012046767780314882
849.864,0.00021943761760278378
850.996,0.0008920790308732119
852.127,0.0006797917773818189
853.258,0.001248097980625648
854.389,0.00032773111512527525
855.52,0.0002484358531670825
856.65,0.00033519379187308025
857.781,1.4082419701910695e-05
858.911,0.0002988086666516016
860.041,0.0005325655349778826
861.171,2.788072751718798e-05
862.301,0.000293988258572656
863.431,0.0012534016223227436
864.56,0.0014223908333032703
865.69,0.00017546675252665044
866.819,0.0009891786344945503
867.948,0.0007070285813139143
869.077,0.0002599518058372253
870.205,0.00032677463646265954
871.334,0.0005390430765240062
872.462,0.00034394436427929217
873.59,0.001268923671875443
874.718,0.0009772932015745276
875.846,0.0006792137977783321
876.974,0.0004061930100159239
878.101,0.00035167217462373017
879.229,0.0009024205988121091
880.356,0.000842558494862727
881.483,0.0006766381034379616
882.61,0.000213708055365669
883.737,0.00035736386755964335
884.863,1.6146956057214314e-05
885.99,0.00038275390058922196
887.116,0.00033681320150372206
888.242,0.00025662769579385
889.368,0.00015784239914271142
890.494,0.000266789372429984
891.62,0.0003271629301425859
892.745,0.0005658822770375956
893.87,0.000792034252661623
894.996,0.0002849440414954108
896.121,0.0007669474164827662
897.246,0.0005257655467569948
898.37,0.0008916057858287463
899.495,0.000878517360126634
900.619,0.0003901976184423152
901.743,0.0006557935017816764
902.867,0.0015755641561071773
903.991,0.0004078503374359891
905.115,0.001123572469007315
906.239,0.0005202728009949999
907.362,0.0008451914053047849
908.485,0.0008064008278895669
909.608,0.00023420189322567703
910.731,0.0006607940920927159
911.854,0.0005491388091785344
912.977,0.0010427144801497283
914.099,0.0017067757086252407
915.221,0.0018131661404197418
916.344,0.001870205744979949
917.466,0.0001784120240933444
918.587,0.0014047566368103122
919.709,0.0012733841033959756
920.831,0.0007734627788418697
921.952,0.001437220955931326
923.073,6.333773968578573e-05
924.194,0.0004312231634635328
925.315,0.0009008961291196911
926.436,0.0011087040406840619
927.556,0.0012312313526832935
928.677,0.0017679261446270258
929.797,0.0011306469005634152
930.917,0.0017116628364973407
932.037,0.0014392763716521149
933.157,0.0009874359678041717
934.276,0.001151434286118013
935.396,0.0017226483280213304
936.515,0.0004949018238365766
937.634,0.0012696999683059651
938.753,0.0015402206063775189
939.872,0.0013646117833610854
