wavelength,intensity
92.56775,0.0
93.04987,9.782464800145067e-05
93.53198,0.0002251615552061734
94.0141,0.0002946648147309992
94.49622,0.0003067309147653334
94.97833,0.0002843764383713827
95.46045,0.00023994391693578644
95.94257,0.00017678403204744947
96.42468,0.00013108601651190354
96.9068,0.00011133084822232482
97.38892,9.670801274233184e-05
97.87103,7.86936201024828e-05
98.35315,5.818940576301623e-05
98.83527,3.7667454432026545e-05
99.31738,2.4227833388463424e-05
99.7995,1.9043404833409055e-05
100.2816,1.4837386163676555e-05
100.7637,5.373537468775735e-06
101.2458,1.3702432054373396e-06
101.728,1.7727342366976423e-06
102.2101,1.6356192431792e-05
102.6922,4.3009028465012134e-05
103.1743,8.575229298650827e-05
103.6564,0.00014937237958765503
104.1385,0.00022767358451136115
104.6207,0.00030656280610046017
105.1028,0.00038109482759317304
105.5849,0.00046010216649050145
106.067,0.0005522085984987313
106.5491,0.0006426769529109382
107.0313,0.0007188674655410388
107.5134,0.0007838688361157197
107.9955,0.0008301333880344149
108.4776,0.0008502729709461783
108.9597,0.0008449882396555726
109.4418,0.0008086749254905339
109.924,0.0007232071613893664
110.4061,0.0006166581731096807
110.8882,0.0005047633583799603
111.3703,0.00039254478779348825
111.8524,0.00028417637596836367
112.3345,0.00019084542240757895
112.8167,0.0001149775019169077
113.2988,5.747439844481022e-05
113.7809,1.9724678895730353e-05
114.263,3.7298400878498156e-06
114.7451,1.8200543772042492e-05
115.2272,2.697926843981355e-05
115.7094,2.9680096334103347e-05
116.1915,2.8444213991187967e-05
116.6736,2.105881777123848e-05
117.1557,1.2724608876534932e-05
117.6378,7.288327648790082e-06
118.1199,3.212819876771082e-06
118.6021,4.841127096107513e-06
119.0842,2.1216259027322498e-05
119.5663,4.710022217677342e-05
120.0484,7.761339949791252e-05
120.5305,0.00011385349644807999
121.0126,0.0001539503950459773
121.4948,0.00019675938535208132
121.9769,0.00024234966005885652
122.459,0.00028950256468858194
122.9411,0.00033874191750102843
123.4232,0.00038908156504185765
123.9053,0.0004357790198045067
124.3875,0.00047860013216605293
124.8696,0.0005165915751982957
125.3517,0.0005470281168849289
125.8338,0.0005699252249686968
126.3159,0.0005833050648836408
126.798,0.0005895023445079396
127.2802,0.0005879550853512901
127.7623,0.0005761758416369415
128.2444,0.0005503946541223522
128.7265,0.0005098371659058709
129.2086,0.00046501547800235655
129.6907,0.00040975626396906405
130.1729,0.0003553182949478736
130.655,0.00030747462711082666
131.1371,0.00026668492880029356
131.6192,0.00022916483977186743
132.1013,0.0001886849811984384
132.5834,0.00013625296991183236
133.0656,9.924782579859325e-05
133.5477,7.91292382868557e-05
134.0298,7.067934134383344e-05
134.5119,7.194216859158587e-05
134.994,8.180050291233294e-05
135.4761,9.766807953335848e-05
135.9583,0.00011372893020635538
136.4404,0.0001264159219204419
136.9225,0.00014393044948207408
137.4046,0.00016786884212833167
137.8867,0.00019674280238023633
138.3688,0.00023012640969776891
138.851,0.0002694005601486894
139.3331,0.00031018700974836397
139.8152,0.0003371976646141286
140.2973,0.0003482374144582779
140.7794,0.0003525514600372896
141.2615,0.00034990332429359625
141.7437,0.0003420908535139495
142.2258,0.0003370014327806294
142.7079,0.00033811123120047884
143.19,0.0003454368317453427
143.6721,0.0003569276675166092
144.1542,0.00037142942790684494
144.6364,0.0003916983773942882
145.1185,0.0004224953805215523
145.6006,0.00046542035465412787
146.0827,0.0005090598997109135
146.5648,0.0005484003335609922
147.0469,0.0005852353809922657
147.5291,0.0006216941598226113
148.0112,0.0006598403287705192
148.4933,0.0006971685014171835
148.9754,0.0007290829641033364
149.4575,0.0007585904714608751
149.9396,0.0007754231576479914
150.4218,0.0007779493940021574
150.9039,0.000769304913825176
151.386,0.0007549654920014229
151.8681,0.000736683007983413
152.3502,0.0007154175285621729
152.8323,0.0007005074003681984
153.3145,0.0006947397263887731
153.7966,0.0006933408411907368
154.2787,0.0006968484791535079
154.7608,0.0007037764762798658
155.2429,0.0007126095756395287
155.725,0.0007230359979665217
156.2072,0.0007356923936126719
156.6893,0.0007380974094124155
157.1714,0.000728105441552473
157.6535,0.0007121581502948591
158.1356,0.0006927972882247061
158.6177,0.0006699452741871834
159.0999,0.0006417188256487824
159.582,0.0006061701707410412
160.0641,0.0005622092942385922
160.5462,0.0005173770843909539
161.0283,0.0004674061412884564
161.5104,0.00041957701991794015
161.9926,0.0003801173050423095
162.4747,0.00034985357537806124
162.9568,0.00032318418061710695
163.4389,0.0002937177427834066
163.921,0.0002618085653134265
164.4031,0.0002367713325854393
164.8853,0.000223510143349164
165.3674,0.0002171596894322969
165.8495,0.00021100071550319562
166.3316,0.00020371327518886392
166.8137,0.00019762679115130734
167.2958,0.00019521629618250393
167.778,0.0001957774018848151
168.2601,0.0001974616402679621
168.7422,0.00019792276325698548
169.2243,0.00019842054334166627
169.7064,0.0002043525439046667
170.1885,0.00021810438545702274
170.6707,0.0002352033689580944
171.1528,0.0002520529290463862
171.6349,0.00026884328501589804
172.117,0.00028680826815776444
172.5991,0.00030690731491612907
173.0812,0.0003294615627837681
173.5634,0.0003556725498961181
174.0455,0.0003877453751145687
174.5276,0.0004232959210629589
175.0097,0.00046191543203177583
175.4918,0.0005030880903178406
175.9739,0.0005459894991746365
176.4561,0.0005919660310560237
176.9382,0.0006461690746427433
177.4203,0.0006859245676711648
177.9024,0.0007133175036773564
178.3845,0.0007265800020956195
178.8666,0.000723079152483896
179.3488,0.0007032198314939575
179.8309,0.0006693294737707169
180.313,0.0006238586740423805
180.7951,0.0005598624643049715
181.2772,0.0004995067502579806
181.7593,0.0004396219053325888
182.2415,0.0003848817577133337
182.7236,0.0003406303397860448
183.2057,0.0003075817860809362
183.6878,0.0002804459346265639
184.1699,0.0002511381502544919
184.652,0.00021619104022601712
185.1342,0.0001866550702823
185.6163,0.000163117723718294
186.0984,0.00014502962898135606
186.5805,0.00013269417687509493
187.0626,0.00012639046560401318
187.5447,0.000123776077662671
188.0269,0.00012136083084813422
188.509,0.00011897312534356224
188.9911,0.00011727972268650089
189.4732,0.00011639927355561899
189.9553,0.00011624653565704656
190.4374,0.00011653334348881033
190.9196,0.00011703049322660812
191.4017,0.00011858778944516382
191.8838,0.0001218612777850123
192.3659,0.0001264872480946641
192.848,0.00013427571720453515
193.3301,0.0001475380701581329
193.8123,0.0001649469418845304
194.2944,0.0001817894226924439
194.7765,0.00019683779080668186
195.2586,0.00021092968025830403
195.7407,0.0002255539703849501
196.2228,0.000240602968846071
196.705,0.00025427965365468506
197.1871,0.00026599804465071356
197.6692,0.00027568681565993437
198.1513,0.00028173392726141446
198.6334,0.0002847756903894288
199.1155,0.0002825471717169245
199.5977,0.0002732759812735786
200.0798,0.00025698049609544133
200.5619,0.00023630196659871517
201.044,0.00021276990525088198
201.5261,0.00018573083628716067
202.0082,0.00015924463002804979
202.4904,0.00013242104272187004
202.9725,0.00010722985988976619
203.4546,8.434089782725557e-05
203.9367,6.397759026024976e-05
204.4188,4.629464855794723e-05
204.9009,3.149958776305285e-05
205.3831,1.9486737493865408e-05
205.8652,1.1068479115547437e-05
206.3473,9.260232105226163e-06
206.8294,8.429207018793414e-06
207.3115,5.0234331123146845e-06
207.7936,1.3160818617213415e-06
208.2758,8.244238999211124e-06
208.7579,1.2208766929245185e-05
209.24,1.1112574304424187e-05
209.7221,1.158964506958742e-05
210.2042,1.5579032910922462e-05
210.6863,1.9526987566755873e-05
211.1685,2.079364538402805e-05
211.6506,1.8983032148484447e-05
212.1327,1.5819340538009736e-05
212.6148,1.3824646617342219e-05
213.0969,1.3964632113589386e-05
213.579,1.3233638228666133e-05
214.0612,1.0780226334774951e-05
214.5433,8.046547670236643e-06
215.0254,6.538985820749431e-06
215.5075,6.500214638622921e-06
215.9896,6.488082885536311e-06
216.4717,4.2039482226629645e-06
216.9539,2.394222321577735e-06
217.436,6.147147651811782e-06
217.9181,4.678652762603873e-06
218.4002,1.4412687526846038e-06
218.8823,5.95745687942919e-07
219.3644,7.067255299278578e-07
219.8466,9.141872355887978e-07
220.3287,4.7292599196642015e-06
220.8108,1.1496125836261509e-05
221.2929,1.61324532300832e-05
221.775,1.667107979278221e-05
222.2571,1.5220045512233327e-05
222.7393,1.4506512235969098e-05
223.2214,1.521827084331658e-05
223.7035,1.5954292956837283e-05
224.1856,1.4294613858016294e-05
224.6677,1.0438995322897632e-05
225.1498,8.060754719214966e-06
225.632,9.15073115400518e-06
226.1141,1.2067603169209032e-05
226.5962,1.4021455460680503e-05
227.0783,1.4343150568007084e-05
227.5604,1.4399973915098201e-05
228.0425,1.554884414404907e-05
228.5247,1.7552120479969707e-05
229.0068,1.970928873414087e-05
229.4889,2.1838343517330348e-05
229.971,2.39351390865769e-05
230.4531,2.5947589394056236e-05
230.9352,2.7779808981220113e-05
231.4174,2.972892882224693e-05
231.8995,3.169965016607184e-05
232.3816,3.386806283887124e-05
232.8637,3.686987167214789e-05
233.3458,4.0895363843412146e-05
233.8279,4.596437103536754e-05
234.3101,5.230506912201472e-05
234.7922,6.028089672080124e-05
235.2743,6.895393646040454e-05
235.7564,7.783091766076836e-05
236.2385,8.688279587705304e-05
236.7206,9.616732058138547e-05
237.2028,0.0001060795253165179
237.6849,0.00011623499546026554
238.167,0.00012508239884535024
238.6491,0.00013213927766517026
239.1312,0.00013846102655475009
239.6133,0.0001443264527892617
240.0955,0.0001499201510289797
240.5776,0.0001553813309586029
241.0597,0.00016020469681907645
241.5418,0.00016509759478956676
242.0239,0.00017365256570916245
242.506,0.0001888726306166845
242.9882,0.00020389379683851002
243.4703,0.0002161670870444632
243.9524,0.0002270118172606575
244.4345,0.00023796516109361442
244.9166,0.0002493710455003416
245.3987,0.00026220335641506984
245.8809,0.000281282889822519
246.363,0.00031447797493381366
246.8451,0.0003438523336343746
247.3272,0.0003628581649447348
247.8093,0.0003769518484605625
248.2914,0.00039350689108982927
248.7736,0.00041676814571908245
249.2557,0.0004445189732901512
249.7378,0.0004672401176171193
250.2199,0.0004763284104879525
250.702,0.000491302543134662
251.1841,0.0005172379231944768
251.6663,0.0005493865839917741
252.1484,0.0005815158495003639
252.6305,0.0006107717029869214
253.1126,0.0006388507473311447
253.5947,0.000672008932905673
254.0768,0.0007185590804505877
254.559,0.0007598880162754142
255.0411,0.0007918436939500708
255.5232,0.0008193214843443582
256.0053,0.0008493405424415601
256.4874,0.0008846942746977898
256.9695,0.000920756419874065
257.4517,0.0009463155313329521
257.9338,0.000952409531044883
258.4159,0.0009575827394254199
258.898,0.0009608828477990196
259.3801,0.0009637494714700043
259.8622,0.0009665259070484985
260.3444,0.0009693600436108978
260.8265,0.0009746728980701297
261.3086,0.0009871494024135169
261.7907,0.0010121664155530263
262.2728,0.0010367756427474583
262.7549,0.0010597590598659752
263.2371,0.0010828544847767782
263.7192,0.00111077642728247
264.2013,0.0011444548914765799
264.6834,0.001175013623482071
265.1655,0.0011892143689915646
265.6476,0.0011819891390657626
266.1298,0.0011660811232677816
266.6119,0.0011415969956855136
267.094,0.0011091704973774797
267.5761,0.0010675942716216313
268.0582,0.0010165458717432045
268.5403,0.0009603848737614518
269.0225,0.000903727841271002
269.5046,0.0008466605984243863
269.9867,0.0007902542500404822
270.4688,0.0007292458845284804
270.9509,0.0006721476092199324
271.433,0.0006270545327391768
271.9152,0.0005948995684730495
272.3973,0.0005700435362298132
272.8794,0.0005474116587191218
273.3615,0.0005272905013316305
273.8436,0.0005134204454946016
274.3257,0.0005082923311603098
274.8079,0.0005080067355340903
275.29,0.0005095040518223177
275.7721,0.0005125428086805824
276.2542,0.0005176966217724118
276.7363,0.0005251958101512088
277.2184,0.0005355659861409496
277.7006,0.000549197479926875
278.1827,0.0005644373280288788
278.6648,0.0005841414867091564
279.1469,0.0006118602635656359
279.629,0.0006467247496642162
280.1111,0.0006827015555701779
280.5933,0.0007161429123598373
281.0754,0.0007481558061361815
281.5575,0.0007829436808443667
282.0396,0.0008249238134875512
282.5217,0.0008642021824137655
283.0038,0.0008955570910207039
283.486,0.0009193255324496611
283.9681,0.0009382218773552669
284.4502,0.0009559001981300349
284.9323,0.000966207339431476
285.4144,0.0009594175337371597
285.8965,0.0009334845780884334
286.3787,0.0008973021821221711
286.8608,0.0008537568496802826
287.3429,0.0008036122702556303
287.825,0.0007476340728699467
288.3071,0.0006829231467436622
288.7892,0.0006169684977290024
289.2714,0.0005600326579633807
289.7535,0.0005122916396918188
290.2356,0.00046828780262488253
290.7177,0.00042555251441586743
291.1998,0.0003846580330580915
291.6819,0.00034623771170430167
292.1641,0.0003100585644488978
292.6462,0.00027766848079541256
293.1283,0.00024983953869907387
293.6104,0.00022616366128547374
294.0925,0.0002081161027019347
294.5746,0.00020049423912206206
295.0568,0.00019855490420418823
295.5389,0.00019240063363259858
296.021,0.00017986987096905183
296.5031,0.0001661088651427815
296.9852,0.00015488854516076432
297.4673,0.0001457833783887555
297.9495,0.0001381739762818775
298.4316,0.00013363470291274867
298.9137,0.0001298338566729403
299.3958,0.00012248779409848985
299.8779,0.00011060163385514049
300.36,9.958937683273423e-05
300.8422,9.471330427519778e-05
301.3243,9.296632213308167e-05
301.8064,8.93392091918717e-05
302.2885,8.212042819956494e-05
302.7706,7.312271132699627e-05
303.2527,6.364433071203128e-05
303.7349,5.3496861124875526e-05
304.217,4.5010825910168826e-05
304.6991,3.975921692385347e-05
305.1812,3.6736398144084306e-05
305.6633,3.4742887336027945e-05
306.1454,3.401456030330199e-05
306.6276,3.34395287836988e-05
307.1097,3.2160142808212254e-05
307.5918,3.0198003879640452e-05
308.0739,2.7741037799093605e-05
308.556,2.4765868394856855e-05
309.0381,2.1374888244839852e-05
309.5203,1.7301155141737597e-05
310.0024,1.2339578453933657e-05
310.4845,8.522134695813747e-06
310.9666,8.095971714685807e-06
311.4487,1.0295164710664179e-05
311.9308,1.1227108333064795e-05
312.413,9.46354806792585e-06
312.8951,7.200132422214407e-06
313.3772,6.746442677588194e-06
313.8593,7.796173888310118e-06
314.3414,8.423883012043176e-06
314.8235,6.095948938445871e-06
315.3057,2.687212401617054e-06
315.7878,4.045915410273367e-06
316.2699,1.2925257987037326e-05
316.752,2.1049643799679777e-05
317.2341,2.0339364083096255e-05
317.7162,1.427508280228773e-05
318.1984,1.031380843193437e-05
318.6805,1.3032392713035981e-05
319.1626,1.8529933960163813e-05
319.6447,2.0030096507009073e-05
320.1268,1.658495986209825e-05
320.6089,1.4001919556129764e-05
321.0911,1.718129710634675e-05
321.5732,2.2851083063664686e-05
322.0553,2.6299769046408997e-05
322.5374,2.548383834341295e-05
323.0195,2.4044344259645092e-05
323.5016,2.6114801026826708e-05
323.9838,3.172983408412306e-05
324.4659,3.696842398289343e-05
324.948,3.927297218713153e-05
325.4301,4.127980270970784e-05
325.9122,4.6500039816538635e-05
326.3943,5.5735998717947224e-05
326.8765,6.509980166487203e-05
327.3586,7.119782589920961e-05
327.8407,7.474832745002452e-05
328.3228,7.996973312299994e-05
328.8049,8.916988832145428e-05
329.287,9.837862593516175e-05
329.7692,0.00010328073666778816
330.2513,0.00010422184456410312
330.7334,0.00010471875186079206
331.2155,0.00010801473873554137
331.6976,0.00011192982322583756
332.1797,0.00011098929718818383
332.6619,0.00010377410432428796
333.144,9.406312570949697e-05
333.6261,8.403639179454609e-05
334.1082,7.385013162997514e-05
334.5903,6.376773323643343e-05
335.0724,5.295825395746523e-05
335.5546,4.2838563272560964e-05
336.0367,3.5883771554853456e-05
336.5188,3.24338976106758e-05
337.0009,2.890322774256442e-05
337.483,2.2717905313753884e-05
337.9651,1.5276277303018863e-05
338.4473,9.196601011798675e-06
338.9294,4.853559476169091e-06
339.4115,1.7863448805482068e-06
339.8936,2.1160259495119233e-07
340.3757,9.411079448031809e-08
340.8578,8.029067666288911e-07
341.34,2.897927666958695e-06
341.8221,5.320268308340287e-06
342.3042,6.318800805696299e-06
342.7863,5.6253901414662155e-06
343.2684,5.173775692731717e-06
343.7505,6.030838954254428e-06
344.2327,7.830207771169794e-06
344.7148,9.667751365083913e-06
345.1969,1.1301091661839967e-05
345.679,1.3091878063502218e-05
346.1611,1.6597096464007037e-05
346.6432,2.1418983433716603e-05
347.1254,2.3227822000343457e-05
347.6075,1.8878268496530295e-05
348.0896,1.1889438047140935e-05
348.5717,6.0995031251015415e-06
349.0538,1.7827955427147144e-06
349.5359,7.68577105616423e-07
350.0181,1.3376931106520166e-07
350.5002,2.57475366886816e-06
350.9823,2.4223406413815913e-06
351.4644,3.274967230612438e-06
351.9465,9.842066522343549e-06
352.4286,1.4057559790609716e-05
352.9108,1.6335478263452278e-05
353.3929,1.8708981567868108e-05
353.875,2.2062082719039148e-05
354.3571,2.620210891894401e-05
354.8392,3.079197489866663e-05
355.3214,3.648306658062987e-05
355.8035,4.1162310899539325e-05
356.2856,4.3916112176111774e-05
356.7677,4.5167084053641674e-05
357.2498,4.564297170619374e-05
357.7319,4.5545898286212163e-05
358.2141,4.47145822704488e-05
358.6962,4.2472472349382667e-05
359.1783,3.8370921553451524e-05
359.6604,3.576687130099052e-05
360.1425,3.5724255002877726e-05
360.6246,3.691870416029148e-05
361.1068,3.867604338657745e-05
361.5889,4.0767810727226554e-05
362.071,4.2014050154311796e-05
362.5531,4.105724662061021e-05
363.0352,3.8586965674365585e-05
363.5173,3.867486027396629e-05
363.9995,4.0035042173386554e-05
364.4816,4.349409008912291e-05
364.9637,5.0629995012782074e-05
365.4458,6.058099032532972e-05
365.9279,7.080657443775536e-05
366.41,7.976467643313875e-05
366.8922,8.809087992242823e-05
367.3743,9.81525253570528e-05
367.8564,0.0001110052983013676
368.3385,0.00012394122854601628
368.8206,0.0001379931637029008
369.3027,0.00015195602599639562
369.7849,0.0001648099626580329
370.267,0.00017601723930839414
370.7491,0.0001844156417598977
371.2312,0.00018845713504434574
371.7133,0.0001875651457166828
372.1954,0.0001830773668390727
372.6776,0.0001712432829459033
373.1597,0.00015904573134235326
373.6418,0.00015223362106602328
374.1239,0.0001500024355413217
374.606,0.00014497100672123731
375.0881,0.0001302727235681717
375.5703,0.00010640686930168059
376.0524,8.963338723334438e-05
376.5345,8.71127755129035e-05
377.0166,8.329859501210865e-05
377.4987,7.232895913663736e-05
377.9808,5.8459048764273764e-05
378.463,4.825738389164679e-05
378.9451,4.47903451169629e-05
379.4272,4.566220698376952e-05
379.9093,4.518869040526195e-05
380.3914,4.16870261914128e-05
380.8735,3.9675463218391835e-05
381.3557,3.977756486697087e-05
381.8378,4.090365048051247e-05
382.3199,4.255001471363569e-05
382.802,4.446894578778911e-05
383.2841,4.626091045324035e-05
383.7662,4.716237437943696e-05
384.2484,4.673294814098396e-05
384.7305,4.8447380139826523e-05
385.2126,5.4479426450803e-05
385.6947,6.0636897245029414e-05
386.1768,6.633804538418755e-05
386.6589,7.11001706205668e-05
387.1411,7.414047910192804e-05
387.6232,7.474890930868573e-05
388.1053,7.368202296510194e-05
388.5874,7.381017733523746e-05
389.0695,7.623104878349945e-05
389.5516,7.774363886158411e-05
390.0338,7.55823248644517e-05
390.5159,7.340059732595452e-05
390.998,7.493714058559308e-05
391.4801,8.120443720212634e-05
391.9622,8.944602874442887e-05
392.4443,9.646149862285813e-05
392.9265,0.0001021256502488065
393.4086,0.00010782801059350887
393.8907,0.00011439510988523998
394.3728,0.00012035697919285015
394.8549,0.00012413503596842707
395.337,0.0001263675306751164
395.8192,0.00012944808438054595
396.3013,0.00013514021371045505
396.7834,0.00014284048274492821
397.2655,0.00015062201803908628
397.7476,0.0001585192462303852
398.2297,0.00016636187668397223
398.7119,0.00017154041876890383
399.194,0.00017726687775982542
399.6761,0.00018908142089962192
400.1582,0.00021100367328472355
400.6403,0.0002337681660819531
401.1224,0.0002480382497485765
