wavelength,intensity
164.6075,0.0
165.0896,4.1148695406866585e-05
165.5717,2.9592492663833253e-05
166.0538,4.678356984451082e-06
166.5359,1.1974079087060942e-05
167.018,2.8091457328996153e-06
167.5002,1.6742405967004445e-05
167.9823,4.861724892714994e-05
168.4644,9.567429234243804e-05
168.9465,0.00015822477725958194
169.4286,0.00022812074289251506
169.9107,0.0003098984563406165
170.3929,0.00039410058087716916
170.875,0.0004642900942046919
171.3571,0.0004786057567997781
171.8392,0.00048727365678787396
172.3213,0.0005438671697078064
172.8034,0.0006566163469050968
173.2856,0.0008087161404790376
173.7677,0.0010136084552684371
174.2498,0.001254374780933648
174.7319,0.00146918342195703
175.214,0.001600092407971255
175.6961,0.0016868087437829752
176.1783,0.0017812696183756435
176.6604,0.001877097860822198
177.1425,0.002008842298897503
177.6246,0.0022434671063934495
178.1067,0.0025656897655728767
178.5888,0.0028939870291755272
179.071,0.003159957047634058
179.5531,0.0033839687531492008
180.0352,0.0036037605287237854
180.5173,0.0038198846552037614
180.9994,0.004042833498897727
181.4815,0.004265044351856369
181.9637,0.004490626105992392
182.4458,0.004772311157126264
182.9279,0.005197908280706158
183.41,0.005731778148849628
183.8921,0.006240477781072798
184.3742,0.006655856981679306
184.8564,0.007034928201825171
185.3385,0.00749798587089716
185.8206,0.008052710523223486
186.3027,0.008659026643512051
186.7848,0.009299274821394579
187.2669,0.009967301901528579
187.7491,0.010639455329335126
188.2312,0.011306435063878914
188.7133,0.011967567118877361
189.1954,0.012655702264578975
189.6775,0.013381023027555252
190.1596,0.014067742317181213
190.6418,0.014644664877433397
191.1239,0.015108832926783897
191.606,0.015466903898081598
192.0881,0.01575868177257669
192.5702,0.015967093847384303
193.0524,0.01593155198082761
193.5345,0.015636879359492907
194.0166,0.015140985466638935
194.4987,0.014511104070570624
194.9808,0.013733096005820126
195.4629,0.012885846760383466
195.9451,0.011978772746928181
196.4272,0.011004445569879265
196.9093,0.010133529223397143
197.3914,0.009410855917329455
197.8735,0.008771238086329923
198.3556,0.008086007385112273
198.8378,0.007340413696614367
199.3199,0.0066214933789116
199.802,0.006002938831448533
200.2841,0.00549533988185952
200.7662,0.005034362357501423
201.2483,0.004634162394719706
201.7305,0.004284901733317436
202.2126,0.003929846244531551
202.6947,0.0035912098374010918
203.1768,0.003268215245731102
203.6589,0.0029941263594195655
204.141,0.0027902556914628394
204.6232,0.0026133328376364653
205.1053,0.002467028841210576
205.5874,0.0023522790399830955
206.0695,0.0022553806624820982
206.5516,0.002174934823509548
207.0337,0.0020960585482756615
207.5159,0.002008338021391105
207.998,0.0019083795522142652
208.4801,0.0017786415567557622
208.9622,0.0016232993557921268
209.4443,0.0014649896756562275
209.9264,0.0013381362445107638
210.4086,0.0011861891888353953
210.8907,0.0010476239126038418
211.3728,0.0009765236934950532
211.8549,0.001006095205305327
212.337,0.0009919899815927183
212.8191,0.0008952933150942806
213.3013,0.0007346605642534271
213.7834,0.0006752280659489185
214.2655,0.0007634339599333829
214.7476,0.0008784441429117629
215.2297,0.0009116091168373389
215.7118,0.0008349206301696705
216.194,0.0007547662054099522
216.6761,0.0006892857712041935
217.1582,0.0006375468990477757
217.6403,0.000582500160402275
218.1224,0.0005205288188059404
218.6045,0.00046067127274940445
219.0867,0.00041069383222518986
219.5688,0.0003694480537006974
220.0509,0.00034186324980096575
220.533,0.00033190755113090653
221.0151,0.00034005914853360575
221.4972,0.0003510495373679941
221.9794,0.0003812291884556951
222.4615,0.0003997484404606031
222.9436,0.0003536727986539201
223.4257,0.00018488030438911025
223.9078,7.421209620548089e-05
224.3899,8.720776393934902e-05
224.8721,0.00023950291655879717
225.3542,0.00031056138730864257
225.8363,0.00026977731363183477
226.3184,0.00017751707698415354
226.8005,9.731736422530315e-05
227.2827,1.2223861312681882e-05
227.7648,2.5747531839859424e-05
228.2469,9.988859764927087e-06
228.729,0.0001327175481979876
229.2111,0.00022671085086813718
229.6932,0.00029766749635226766
230.1754,0.0003340715319802362
230.6575,0.00031297159134811544
231.1396,0.00019282354790286802
231.6217,8.801746875466992e-05
232.1038,2.4516381947388702e-05
232.5859,8.783738349901978e-07
233.0681,3.515396078254137e-05
233.5502,0.0001766055469031177
234.0323,0.0003403787828915071
234.5144,0.00039602425409941157
234.9965,0.0002745693076128237
235.4786,0.00016091083079269872
235.9608,0.00011952298177842295
236.4429,0.0001763948655795313
236.925,0.0001820652236978661
237.4071,0.00010318191767182288
237.8892,6.380652381384864e-06
238.3713,5.686000418677493e-05
238.8535,9.14836492878285e-06
239.3356,3.1609680270579425e-05
239.8177,2.31715950583801e-05
240.2998,6.211370301544853e-05
240.7819,8.7250385086284e-05
241.264,1.746096747186612e-05
241.7462,9.296811619728713e-05
242.2283,0.00014803352280816877
242.7104,0.00011887900970510857
243.1925,8.131009303736104e-05
243.6746,5.9130513659331186e-05
244.1567,5.9113979175707945e-05
244.6389,5.1847825190732836e-05
245.121,3.746473002563243e-05
245.6031,1.5824965171734943e-05
246.0852,1.4565406030129754e-05
246.5673,5.9142393273664594e-05
247.0494,0.00010334289856809604
247.5316,0.00014381684157846927
248.0137,0.00018356627357916973
248.4958,0.0002091528293715782
248.9779,0.00021839589664629814
249.46,0.00021456983653116987
249.9421,0.00020486981625449866
250.4243,0.00019347935110229403
250.9064,0.00016843499060570678
251.3885,0.0001223048965259771
251.8706,4.6035401431436976e-05
252.3527,2.6486215956755246e-05
252.8348,0.00011302633587292223
253.317,0.0001850247023135384
253.7991,0.00017363423716133377
254.2812,2.275253075291915e-05
254.7633,0.0001040082054589888
255.2454,0.00013773685496262976
255.7275,4.863266818167249e-05
256.2097,2.5768837564504736e-05
256.6918,8.90734452483557e-05
257.1739,0.0001343014644502945
257.656,0.00014101359201333676
258.1381,8.231869653837846e-05
258.6202,4.0826704521387205e-05
259.1024,5.302453735662348e-05
259.5845,0.00013414048355402133
260.0666,0.0002041808955996044
260.5487,0.0002601057074531202
261.0308,0.00030701234040448076
261.5129,0.0003548921319667457
261.9951,0.0003985528178882226
262.4772,0.0004545273786572734
262.9593,0.0005381717431788169
263.4414,0.0006660953093787231
263.9235,0.0007381172895833408
264.4056,0.0007255239286254901
264.8878,0.0006847637596420145
265.3699,0.0007259404424504861
265.852,0.0008819503262278808
266.3341,0.0010274862692209491
266.8162,0.001104236335930264
267.2983,0.0010935606841433784
267.7805,0.0011315274466707408
268.2626,0.0012317312662497321
268.7447,0.001365393413496002
269.2268,0.0014865950575120687
269.7089,0.001595423477097116
270.191,0.0016907969000234772
270.6732,0.0017700615659137337
271.1553,0.001830704815115815
271.6374,0.001890713838377157
272.1195,0.0019410654625087631
272.6016,0.0020042538584715
273.0837,0.0021252969460023824
273.5659,0.002318426018190617
274.048,0.002499497039389331
274.5301,0.002636831199670169
275.0122,0.002728435633118424
275.4943,0.002808545448714115
275.9764,0.0028759649269084167
276.4586,0.002934150793031244
276.9407,0.002984123239268616
277.4228,0.003022994307131971
277.9049,0.0030714776800788166
278.387,0.00315252525788352
278.8691,0.003262428661345187
279.3513,0.0033118497965010448
279.8334,0.0032933137190831836
280.3155,0.0032334991335911346
280.7976,0.003161649771456015
281.2798,0.0030778349708349534
281.7619,0.002988846476951137
282.244,0.0029022828790379895
282.7261,0.0028169125762625776
283.2082,0.0027199477698977566
283.6903,0.0026142584777900358
284.1725,0.0024863329720612587
284.6546,0.0023052527381004087
285.1367,0.002072885542210028
285.6188,0.001845997030497329
286.1009,0.0016467245006109594
286.583,0.0014745345821114597
287.0652,0.0013185576703248678
287.5473,0.0011785265951492368
288.0294,0.0010606182711557222
288.5115,0.000986879807900481
288.9936,0.0009506983816986542
289.4757,0.000896518127576166
289.9579,0.0007793012456250777
290.44,0.0006370542587146023
290.9221,0.0005945582113917956
291.4042,0.0006602990273484541
291.8863,0.0007305764013338223
292.3684,0.0006995395754616887
292.8506,0.0005837147903575891
293.3327,0.00045267352847437836
293.8148,0.00030769185434435185
294.2969,0.00017284344275250276
294.779,9.96636607884844e-05
295.2611,8.72314261915723e-05
295.7433,8.627257160608988e-05
296.2254,5.6599573947653514e-05
296.7075,1.3504726178932385e-05
297.1896,1.763853618880646e-05
297.6717,2.7381167914768272e-05
298.1538,3.289054513682992e-05
298.636,5.134592360720168e-05
299.1181,7.552845445006632e-05
299.6002,9.122792240621868e-05
300.0823,0.00010660067672409137
300.5644,0.00010950337563207213
301.0465,6.816289961046471e-05
301.5287,5.876355479698322e-05
302.0108,0.00019319050676521596
302.4929,0.00023959291069840049
302.975,0.00020809214952038083
303.4571,0.0001541868721035448
303.9392,7.55876585688463e-05
304.4214,7.431862482870744e-06
304.9035,9.962816741014945e-06
305.3856,0.00014502191935409478
305.8677,0.00027699604613591974
306.3498,0.00026096986454148766
306.8319,0.00013417364949771136
307.3141,2.5503670026116478e-05
307.7962,3.134450788336899e-05
308.2783,8.336041749486415e-05
308.7604,0.00011355194819689844
309.2425,9.59512570651827e-05
309.7246,8.48733469905012e-05
310.2068,0.00012418003303822872
310.6889,0.0001959866285617484
311.171,0.000255529146641451
311.6531,0.0002403055420937398
312.1352,0.0002255649287230699
312.6173,0.00027384009324563937
313.0995,0.0004223541828197609
313.5816,0.0005832934277104163
314.0637,0.0007336374627741007
314.5458,0.0008616982506416132
315.0279,0.0009495947897711913
315.51,0.0009736497965908032
315.9922,0.0009664381433670965
316.4743,0.0009266811956920219
316.9564,0.000834155970912373
317.4385,0.0008052715372045663
317.9206,0.0009128853268342995
318.4027,0.0010965795608307177
318.8849,0.0012719115161008501
319.367,0.0014575186104460566
319.8491,0.0015946399074333285
320.3312,0.001635677429045323
320.8133,0.0015536237206389123
321.2954,0.001523162449959177
321.7776,0.0016210145907823706
322.2597,0.0017703932253506339
322.7418,0.0018894710852532172
323.2239,0.0019460752655819386
323.706,0.001991705591559895
324.1881,0.002040494925186103
324.6703,0.002094516137941189
325.1524,0.002130685442087574
325.6345,0.0020860753082956375
326.1166,0.002054939566451095
326.5987,0.0021140748319561594
327.0808,0.0023958815885266713
327.563,0.0026119242547940754
328.0451,0.0027000719629124165
328.5272,0.0026679199079395954
329.0093,0.002681829724118475
329.4914,0.0027695604335296027
329.9735,0.002877082095537975
330.4557,0.0029673041297835954
330.9378,0.0030143667978326087
331.4199,0.0030926369702943828
331.902,0.0032346972775510476
332.3841,0.003417297617264356
332.8662,0.0035169443071752216
333.3484,0.003474330433473516
333.8305,0.0034369246796720214
334.3126,0.0034973410039962232
334.7947,0.0037015239361011423
335.2768,0.0038546172533391303
335.7589,0.00392472637319496
336.2411,0.003950461981781086
336.7232,0.004040295140488119
337.2053,0.0042172466023653364
337.6874,0.0043888658144946155
338.1695,0.004511045465943763
338.6516,0.004577425356663337
339.1338,0.00463087828745929
339.6159,0.004655955910876011
340.098,0.004692968425198959
340.5801,0.004821651801833985
341.0622,0.005053626728010256
341.5443,0.005288566708947701
342.0265,0.005505934558316051
342.5086,0.00569978077130425
342.9907,0.005815284564380238
343.4728,0.005834621667221725
343.9549,0.005841114240116596
344.437,0.005951555862839899
344.9192,0.006154770000273873
345.4013,0.006343747995796462
345.8834,0.006460100332753409
346.3655,0.00653560619169213
346.8476,0.006653553791145278
347.3297,0.006815877811161434
347.8119,0.006999206928847933
348.294,0.007210407076407263
348.7761,0.007427964029840514
349.2582,0.007578102959726115
349.7403,0.007612660515380898
350.2225,0.007603064696292808
350.7046,0.007656484170215741
351.1867,0.007765849354415771
351.6688,0.007871674898426663
352.1509,0.007955098883980266
352.6331,0.008001797890366012
353.1152,0.007980501863365057
353.5973,0.007854267626811583
354.0794,0.007715179162667143
354.5615,0.007663946507545993
355.0436,0.007670836683859371
355.5258,0.0076475623374102405
356.0079,0.007547361427124556
356.49,0.007394492610353358
356.9721,0.007207269888458808
357.4542,0.006986173294836418
357.9363,0.006739887070005023
358.4185,0.006422958354878337
358.9006,0.00609164803317496
359.3827,0.00584076512491986
359.8648,0.005811531576015316
360.3469,0.005785861911410796
360.829,0.005638554693676506
361.3112,0.005341894055249271
361.7933,0.005044074548321758
362.2754,0.004735248699934893
362.7575,0.004468639606713447
363.2396,0.004301490038866837
363.7217,0.004445711951049964
364.2039,0.004494019796634006
364.686,0.004279294070469849
365.1681,0.0037954107101480653
365.6502,0.003410081115218473
366.1323,0.003228647887003144
366.6144,0.0031171627977473718
367.0966,0.00298359762694464
367.5787,0.0028379079762885636
368.0608,0.002654008152231845
368.5429,0.0023876778662855706
369.025,0.0020674471032564147
369.5071,0.0018466317413202856
369.9893,0.0017728530328409763
370.4714,0.0017431869689982528
370.9535,0.0017167104603834958
371.4356,0.001719162994640573
371.9177,0.0016605320066419061
372.3998,0.0015047684430310982
372.882,0.0013046148821551854
373.3641,0.0011836973791186853
373.8462,0.001167133802562387
374.3283,0.0011659497201867875
374.8104,0.0011614965618995205
375.2925,0.0011599410597451705
375.7747,0.0010584876986911914
376.2568,0.0008129021286643574
376.7389,0.0005534998398444404
377.221,0.0004896810969987059
377.7031,0.0006378286156162537
378.1852,0.0007413892747883145
378.6674,0.0006898773275097756
379.1495,0.0005327454262806456
379.6316,0.000498682935370125
380.1137,0.0005994899484279229
380.5958,0.0007183597938591171
381.0779,0.000737806964964019
381.5601,0.0006770070988056238
382.0422,0.0006304225246232532
382.5243,0.0006248968068704553
383.0064,0.0006356975582695051
383.4885,0.0006139345896929147
383.9706,0.0005650182169256717
384.4528,0.0005296984264246803
384.9349,0.0005344168152850239
385.417,0.0005710506365959558
385.8991,0.0006349920546427658
386.3812,0.0007378472101880872
386.8633,0.0008298870678678282
387.3455,0.000854585998272533
387.8276,0.0008326101664023765
388.3097,0.0008116448290738865
388.7918,0.0007995014388140526
389.2739,0.0008084654563724917
389.756,0.0008506982126510927
390.2382,0.0009282750035415696
390.7203,0.001025324664294486
391.2024,0.0011558520480033888
391.6845,0.001293068381905328
392.1666,0.0014078084854884545
392.6487,0.0014993159424931716
393.1309,0.0015569146162503758
393.613,0.0015799111251887702
394.0951,0.0015675500228131932
394.5772,0.001508033639885024
395.0593,0.001335332170645861
395.5414,0.0011543203050777052
396.0236,0.0010323942470284095
396.5057,0.0010889581821330627
396.9878,0.0010737037875645282
397.4699,0.0009161907689122939
397.952,0.0006638149083089259
398.4341,0.0004668743224720938
398.9163,0.0003486653715036113
399.3984,0.0002622791435056948
399.8805,0.0001961736961213333
400.3626,0.0001620614562952776
400.8447,0.00011197986307070318
401.3268,3.372867374775183e-05
401.809,5.141928628673822e-05
402.2911,0.00011949931952619966
402.7732,0.0001787884866471591
403.2553,0.000195700160147537
403.7374,0.00014517344504712298
404.2195,3.294736848392104e-05
404.7017,3.3053911653614114e-05
405.1838,4.4039524398158296e-05
405.6659,3.265142062235381e-05
406.148,2.2118013882849718e-05
406.6301,1.2193080989502909e-05
407.1122,1.8737099887671963e-05
407.5944,5.254154617958225e-05
408.0765,9.630876072428572e-05
408.5586,0.00010186075909328234
409.0407,7.172135322964974e-05
409.5228,4.419814876685347e-05
410.0049,3.488168971966395e-05
410.4871,4.7437011667536695e-05
410.9692,9.227677113130441e-05
411.4513,0.00017477778338353438
411.9334,0.0002728741108915569
412.4155,0.0003899987197566187
412.8976,0.0005108001419902037
413.3798,0.0005835727198678059
413.8619,0.0005294685922534951
414.344,0.0004382809635595665
414.8261,0.00039625864616344304
415.3082,0.00040650081324771365
415.7903,0.0004631003871953672
416.2725,0.0005968148532329259
416.7546,0.0007640022418925157
417.2367,0.0009140291639858308
417.7188,0.0010555042184057434
418.2009,0.001139059122158123
418.683,0.0010976118750721804
419.1652,0.0009727949492410154
419.6473,0.000907802306546253
420.1294,0.0009826249664402493
420.6115,0.0011034716766729665
421.0937,0.0012306538579620243
421.5758,0.0013782874014288205
422.0579,0.0014849420940319625
422.54,0.001524303377817402
423.0221,0.0015175344220584464
423.5042,0.001500182427016184
423.9864,0.0014322324876757289
424.4685,0.001403149252258669
424.9506,0.0014641503445374056
425.4327,0.0016309042484943803
425.9148,0.0016745552852597254
426.3969,0.0015132422446674525
426.8791,0.001329438912172054
427.3612,0.001287194033838011
427.8433,0.0014486520542133729
428.3254,0.001591990510995869
428.8075,0.0017015433446141456
429.2896,0.0017657310828275423
429.7718,0.0017177616850314482
430.2539,0.0015330065287427238
430.736,0.0013662550491968376
431.2181,0.0013344535640674065
431.7002,0.001425478078383304
432.1823,0.0014540405502985645
432.6645,0.0013998345974185389
433.1466,0.0013202266349181576
433.6287,0.0013076167879649055
434.1108,0.0013458347194810314
434.5929,0.0013523054726761073
435.075,0.0012552339922233952
435.5572,0.0011214583825381855
436.0393,0.0010732707877441309
436.5214,0.0011078894385583423
437.0035,0.0011665228509680973
437.4856,0.0012373612336793332
437.9677,0.001293257485970227
438.4499,0.0012904732922762497
438.932,0.0011921566342885089
439.4141,0.0010765403485380161
439.8962,0.0009968354095940969
440.3783,0.0009433470823962526
440.8604,0.0008888710501209734
441.3426,0.0007951404081481466
441.8247,0.0007177013238074938
442.3068,0.0006947785169661882
442.7889,0.0007413325435688446
443.271,0.0007899817462341404
443.7531,0.0008478029809292643
444.2353,0.0008887100692247003
444.7174,0.0008848722264716821
445.1995,0.0007346178946182704
445.6816,0.000646479399262065
446.1637,0.0007026505797703891
446.6458,0.0008820264527360582
447.128,0.0009566905561448699
447.6101,0.000836585230823001
448.0922,0.0007109086088198714
448.5743,0.0006948163377791681
449.0564,0.0008554219352158309
449.5385,0.0009431502202158704
450.0207,0.0009312793337623782
450.5028,0.0008623329614645696
450.9849,0.0008102386706425849
451.467,0.0007754779493385903
451.9491,0.0007564565048208204
452.4312,0.0007448697593468947
452.9134,0.0007458710411264251
453.3955,0.0008225832870227603
453.8776,0.0009880823158003528
454.3597,0.001134463408498855
454.8418,0.0010841214820116027
455.3239,0.0009036895355758044
455.8061,0.0008961088869844354
456.2882,0.0012101811609667077
456.7703,0.0016013094623376575
457.2524,0.0017193385220033769
457.7345,0.0016072284195690022
458.2166,0.001440486152785252
458.6988,0.0012915696109704474
459.1809,0.001159005721947246
459.663,0.001048614526974583
460.1451,0.0009624984753483634
460.6272,0.0008725891901331534
461.1093,0.0007318215788688508
461.5915,0.0005893282717917888
462.0736,0.0005077080480879931
462.5557,0.0005888574511584115
463.0378,0.0006504336137473287
463.5199,0.0006154784546740404
464.002,0.0004944213055588456
464.4842,0.00037061526217512127
464.9663,0.0002368441134063146
465.4484,0.0001236757555318309
465.9305,4.622480612331113e-05
466.4126,5.376795877278613e-06
466.8947,8.807449090347029e-07
467.3769,4.7046361460032387e-05
467.859,0.00012081335033614018
468.3411,0.00018068253356590065
468.8232,0.0002443730735532778
469.3053,0.0002542104124739989
469.7874,0.00017324594348140743
470.2696,9.44194656512775e-06
470.7517,8.447792554197482e-05
471.2338,9.51391763269951e-05
471.7159,7.694188611463332e-05
472.198,6.810131956881805e-05
472.6801,6.883528578173575e-05
473.1623,9.311018668707037e-05
473.6444,0.00015631768700918451
474.1265,0.00021787973952556687
474.6086,0.00018852400030216522
475.0907,8.274010767377305e-05
475.5728,5.802958858406553e-06
476.055,1.1766918008374969e-05
476.5371,2.5515506001050297e-05
477.0192,4.078882067371907e-05
477.5013,3.1614417569846253e-05
