wavelength,intensity
155.7318,0.0
156.2139,7.85281782898069e-05
156.696,5.9396277602847195e-05
157.1782,3.2755587869180205e-06
157.6603,1.1879376741123862e-05
158.1424,4.114632918164425e-05
158.6245,2.786770358082082e-05
159.1066,2.8647811185573917e-06
159.5887,2.1768796860847038e-05
160.0709,2.6677400166368326e-05
160.553,1.6392592539874007e-05
161.0351,1.1126485575249719e-05
161.5172,5.5208640817987335e-05
161.9993,0.0001139325322495635
162.4814,0.00018975516474110246
162.9636,0.00027804135522081633
163.4457,0.0003748644790016278
163.9278,0.0004800446447807739
164.4099,0.0005912871959512574
164.892,0.0007052345171084604
165.3741,0.000823851738904238
165.8563,0.0009374824319732893
166.3384,0.001024488727351188
166.8205,0.0011033480317074555
167.3026,0.0012083458817727503
167.7847,0.0013673023947870482
168.2668,0.0015573471311885554
168.749,0.0017284155171185377
169.2311,0.0018744300388604663
169.7132,0.0020159477629155356
170.1953,0.0021689799849940947
170.6774,0.002324801249588808
171.1595,0.0024673449844165095
171.6417,0.0025771751706633052
172.1238,0.0026738844440994027
172.6059,0.0027976520848114863
173.088,0.0029272562527779067
173.5701,0.003134298535320544
174.0522,0.0034857489248179036
174.5344,0.00391926611454155
175.0165,0.00434224875320366
175.4986,0.0047074077327595555
175.9807,0.005036689792146335
176.4628,0.005395885690189078
176.9449,0.005796039589160113
177.4271,0.006208490101171774
177.9092,0.006598631182347506
178.3913,0.006996331577297029
178.8734,0.0074402897358142
179.3555,0.00795300904162202
179.8376,0.008527705992495008
180.3197,0.009155948486667525
180.8019,0.009861820623892247
181.284,0.01058182707776264
181.7661,0.01125716618173941
182.2482,0.011943293915059787
182.7303,0.012711318254948045
183.2124,0.013605921097764333
183.6946,0.01458909252646392
184.1767,0.015547190695686745
184.6588,0.016420570243834733
185.1409,0.017368718629950555
185.623,0.01841595754607355
186.1051,0.019546615598927973
186.5873,0.020756304604443724
187.0694,0.02204993157066383
187.5515,0.023400818277970976
188.0336,0.02475909459027572
188.5157,0.02605312885755869
188.9978,0.027475172030311874
189.48,0.029073945073768794
189.9621,0.030781894197360844
190.4442,0.03256310902404589
190.9263,0.034394198835642556
191.4084,0.036253368176465656
191.8905,0.03807963825881847
192.3727,0.03984142870386285
192.8548,0.04164091874133264
193.3369,0.04363745521442738
193.819,0.04561573587202609
194.3011,0.04737744388709345
194.7832,0.04884378589925482
195.2654,0.05007398057375669
195.7475,0.051211174838905575
196.2296,0.052435308485686324
196.7117,0.05319565229124636
197.1938,0.05339261144807213
197.6759,0.0532088895757893
198.1581,0.05279557597343015
198.6402,0.05220479547939638
199.1223,0.051394266364305406
199.6044,0.05027423692966275
200.0865,0.04876814427329514
200.5686,0.04706304625714311
201.0508,0.04517733931254582
201.5329,0.04314744294287399
202.015,0.04097190250147455
202.4971,0.038661511466513275
202.9792,0.0363113406944127
203.4613,0.034054310947508236
203.9435,0.03189239084760371
204.4256,0.02988642341537489
204.9077,0.028044816508476532
205.3898,0.026307415638981976
205.8719,0.024624321577868723
206.354,0.02299686290241325
206.8362,0.02147326599798702
207.3183,0.020073401337870986
207.8004,0.01886398871521932
208.2825,0.017676599442895142
208.7646,0.016480593813562604
209.2467,0.01532266113596311
209.7289,0.014214676175607881
210.211,0.013172610952747639
210.6931,0.012220850194110027
211.1752,0.011396249797061676
211.6573,0.010726195909257729
212.1395,0.010104867835509474
212.6216,0.00956565456532706
213.1037,0.009045952955584498
213.5858,0.008496954762249093
214.0679,0.007935170224833199
214.55,0.007412627205294973
215.0322,0.006994372653137561
215.5143,0.006707128427377871
215.9964,0.006364767639933333
216.4785,0.005855175824429614
216.9606,0.005392806688106745
217.4427,0.00507758475838633
217.9249,0.004884989541519771
218.407,0.00472417592961172
218.8891,0.004519894081534392
219.3712,0.004270256835696539
219.8533,0.00403910669417256
220.3354,0.003839248911449438
220.8176,0.0036463676140744434
221.2997,0.0034510168115647524
221.7818,0.00325779076293298
222.2639,0.003078603509149992
222.746,0.0029261866026056823
223.2281,0.0027952334923096473
223.7103,0.0026420921717321077
224.1924,0.0024258734932196824
224.6745,0.0022312170420457234
225.1566,0.0020766991408521615
225.6387,0.001953880414640098
226.1208,0.001852430447761643
226.603,0.0017693749726934843
227.0851,0.0016976502252883108
227.5672,0.0016068351800904554
228.0493,0.0014768668655785497
228.5314,0.0013533620310284544
229.0135,0.0012300526040120885
229.4957,0.0011221944337446394
229.9778,0.0010501608163667971
230.4599,0.0010238414095905717
230.942,0.0010284860963538263
231.4241,0.001031989370376638
231.9062,0.0010564764072522124
232.3884,0.001037274101667244
232.8705,0.0009448574905043577
233.3526,0.0008244316580365955
233.8347,0.0007100120615993622
234.3168,0.000613871555004615
234.7989,0.0005322896369960168
235.2811,0.00045644983967397157
235.7632,0.00037365464938026897
236.2453,0.0003289421569521784
236.7274,0.0003708265738455907
237.2095,0.0004158255831761144
237.6916,0.0003969168252857358
238.1738,0.0003072781043479968
238.6559,0.00020360257657856527
239.138,0.00016382531233856935
239.6201,0.00021408214199661703
240.1022,0.00022627993604127587
240.5843,0.00013623105323559275
241.0665,5.859903426052093e-05
241.5486,6.914662865371465e-05
242.0307,0.00015508356478871935
242.5128,0.00023599358150826416
242.9949,0.00022761762910343967
243.477,0.00011981008053951734
243.9592,5.350869225098717e-05
244.4413,8.344745385293954e-05
244.9234,0.00010762882097848171
245.4055,7.868920767430182e-05
245.8876,1.1370938945298245e-05
246.3697,4.970750659362641e-05
246.8519,6.838662426570698e-05
247.334,5.117660273678426e-05
247.8161,5.412842021341705e-05
248.2982,9.579856765483204e-05
248.7803,0.00013309580481600777
249.2624,0.00015785781839723395
249.7446,0.00016776915034437458
250.2267,0.0001558684436344945
250.7088,0.00011038765533247379
251.1909,4.9913533047922996e-05
251.673,2.926695244052039e-05
252.1551,6.3437189028634e-05
252.6373,0.00010806269358687094
253.1194,0.0001653518185363017
253.6015,0.00022055687122587815
254.0836,0.00024737221553435717
254.5657,0.00023449844719001636
255.0478,0.0001947140551814204
255.53,0.00013823759282883844
256.0121,5.31985615845525e-05
256.4942,2.4066547016393126e-06
256.9763,3.098818733687715e-05
257.4584,7.581967471001107e-05
257.9406,7.241391050117669e-05
258.4227,7.327093982094416e-06
258.9048,8.014763640867048e-05
259.3869,0.00015535587464217418
259.869,0.00021840239406801517
260.3511,0.0002671486701532925
260.8333,0.00028777095331276664
261.3154,0.0003058350948681507
261.7975,0.0003397549334302269
262.2796,0.0003897074994966739
262.7617,0.00044518602575702767
263.2438,0.0005029402012414451
263.726,0.0005616725296236091
264.2081,0.0006101874199146046
264.6902,0.0006365179789818369
265.1723,0.0006696945900806376
265.6544,0.0007345437076389639
266.1365,0.0008236902731257471
266.6187,0.0009126331880811006
267.1008,0.0009772946562211808
267.5829,0.0010362422723079992
268.065,0.0011373896726826157
268.5471,0.0012958540302459584
269.0292,0.0014501338542706342
269.5114,0.0015476155450795126
269.9935,0.0016120166314686933
270.4756,0.0016823774051955042
270.9577,0.0017758277852465058
271.4398,0.0018734559104851267
271.9219,0.0019493249462048986
272.4041,0.0020027356922479125
272.8862,0.0020631927466784003
273.3683,0.002144149651508396
273.8504,0.0022431320527810258
274.3325,0.00235290987174831
274.8146,0.0024787595967031553
275.2968,0.0026057037008233273
275.7789,0.0027438825259273815
276.261,0.0028807153179951275
276.7431,0.002961208675425012
277.2252,0.002955437607270063
277.7073,0.0028969428711745665
278.1895,0.002839116302775048
278.6716,0.0027820393622840786
279.1537,0.0027254851248237795
279.6358,0.0026864351354220963
280.1179,0.0026440947352911687
280.6,0.002550821822131841
281.0822,0.00238884934172351
281.5643,0.0022199658350664396
282.0464,0.002132082872638957
282.5285,0.0021365253635174347
283.0106,0.00208244305560292
283.4927,0.0019063454713110547
283.9749,0.0016941377385033627
284.457,0.0015092579674846921
284.9391,0.001360375367425126
285.4212,0.001252239844529158
285.9033,0.0011993023435306097
286.3854,0.0012004796375551616
286.8676,0.001169196976398659
287.3497,0.0010884771789731141
287.8318,0.0009950941975503712
288.3139,0.0009071632317833372
288.796,0.0008208910480830214
289.2781,0.0007186303581365883
289.7603,0.0005850797338003871
290.2424,0.0004370800072827913
290.7245,0.00035010367762594585
291.2066,0.00038717418386212957
291.6887,0.0004028032469202733
292.1708,0.0003570069457592016
292.653,0.00028452204850135506
293.1351,0.00023047707651760246
293.6172,0.0002104928498683869
294.0993,0.0002056410699099567
294.5814,0.0001822084579049718
295.0635,0.00012521705063720282
295.5457,7.717332039713687e-05
296.0278,3.7126161017130235e-05
296.5099,6.12080884974685e-06
296.992,7.951549546146774e-06
297.4741,8.530421332914073e-06
297.9562,1.4161731886258286e-05
298.4384,4.935475478025678e-05
298.9205,0.0001244931699744131
299.4026,0.0001557974083896029
299.8847,0.00010766790248522755
300.3668,5.277831416648038e-05
300.8489,7.095664548413048e-06
301.331,2.589905753288762e-05
301.8131,4.350148939176486e-05
302.2953,4.204483047749077e-05
302.7774,2.5901423758109946e-05
303.2595,1.7263276142891638e-05
303.7416,1.8350590574306732e-05
304.2237,2.167350295860438e-05
304.7058,3.0258376564565063e-05
305.188,4.2637909313236394e-05
305.6701,5.452558723792711e-05
306.1522,6.254224191944316e-05
306.6343,6.689386587032585e-05
307.1164,6.676954206971008e-05
307.5985,6.032734843725597e-05
308.0807,6.143477093423868e-05
308.5628,9.954646475646865e-05
309.0449,0.00013063880964252783
309.527,0.00010430946278083974
310.0091,2.1017680363889642e-05
310.4912,4.4530205807172095e-05
310.9734,2.3083981690465655e-06
311.4555,0.00013376465134708966
311.9376,0.00020245961221502585
312.4197,0.00015482017676807
312.9018,9.951746879985078e-05
313.3839,0.00011301329254126637
313.8661,0.000175531290349825
314.3482,0.0002286362696663633
314.8303,0.00021990756544816917
315.3124,0.00018988773153941899
315.7945,0.00022793963938420774
316.2766,0.0003521907076673281
316.7588,0.00046095298931788254
317.2409,0.0004790129608861944
317.723,0.00044923285274587027
318.2051,0.0004423638657854052
318.6872,0.0004721907650597365
319.1693,0.0005160422036456527
319.6515,0.0005579607562471904
320.1336,0.000599575772580454
320.6157,0.0006519876612550259
321.0978,0.0007248416993452001
321.5799,0.0008001594239834582
322.062,0.0008443806822368068
322.5442,0.0008514701451416555
323.0263,0.0008706351147958618
323.5084,0.0009223463486658712
323.9905,0.000991179743406958
324.4726,0.00106168307250577
324.9547,0.0011314110749384952
325.4369,0.0011907989640789762
325.919,0.001222444802016529
326.4011,0.0012221853900300647
326.8832,0.0012714649395783578
327.3653,0.0014374536993958173
327.8474,0.0015899021232842771
328.3296,0.0016315971451834597
328.8117,0.001594443530135164
329.2938,0.001584057837914457
329.7759,0.0016661479124871945
330.258,0.0018162402936798979
330.7401,0.0019207290174166176
331.2223,0.001935341912811148
331.7044,0.0019594381346192636
332.1865,0.002019035492877787
332.6686,0.0020859676644433105
333.1507,0.0021197775317184143
333.6328,0.0021112353616893655
334.115,0.0020989736601684152
334.5971,0.0021442519616563286
335.0792,0.002273729090481714
335.5613,0.002389133967585294
336.0434,0.0025054489686114783
336.5255,0.002596562701255431
337.0077,0.002621162230805509
337.4898,0.002602326981059332
337.9719,0.0026110863783219062
338.454,0.0027119641841834873
338.9361,0.002891981071440943
339.4182,0.003035476145179753
339.9004,0.0031370546058458954
340.3825,0.0032043824413010543
340.8646,0.003223993017713318
341.3467,0.0032213993827308928
341.8288,0.00322482798489218
342.3109,0.003243087194563741
342.7931,0.0032794877875279645
343.2752,0.00334698630152375
343.7573,0.003451917237843003
344.2394,0.003543069276182153
344.7215,0.0035956023854111473
345.2036,0.0036401737286256685
345.6858,0.0036939030422857046
346.1679,0.0037588588339319226
346.65,0.003848860246768494
347.1321,0.003998702428736869
347.6142,0.004179657563085555
348.0963,0.004305786095315572
348.5785,0.004355322147557023
349.0606,0.004392600862217483
349.5427,0.004487544194616753
350.0248,0.004613329915118863
350.5069,0.004685261222348773
350.989,0.004624573848864882
351.4712,0.004555601777809536
351.9533,0.00459156743142449
352.4354,0.004716636011126637
352.9175,0.004838421453332803
353.3996,0.00490706138006903
353.8817,0.004945682248708057
354.3639,0.0050303038933393555
354.846,0.005198019803616227
355.3281,0.005333573476393707
355.8102,0.00539833919421059
356.2923,0.005420672869157402
356.7744,0.005431563323766725
357.2566,0.0054413530957418904
357.7387,0.005442361650754686
358.2208,0.005416890787859418
358.7029,0.005353657297850436
359.185,0.005323609146820172
359.6671,0.005351043782697086
360.1493,0.0053795451594529165
360.6314,0.005391196879144013
361.1135,0.005383749088280291
361.5956,0.005357924261366109
362.0777,0.005313790281911946
362.5598,0.0052523702513971255
363.042,0.005175637640447647
363.5241,0.005076101018800197
364.0062,0.004971604052065775
364.4883,0.004860536931281654
364.9704,0.00474826487818657
365.4525,0.004637253033975264
365.9347,0.00452929691749984
366.4168,0.004427014892735829
366.8989,0.0043407693775574865
367.381,0.004272257459726729
367.8631,0.0041795014310114596
368.3452,0.004055014709970541
368.8274,0.003910499928927929
369.3095,0.0037324996668138466
369.7916,0.003534921800278304
370.2737,0.003352455288057078
370.7558,0.003194355561921438
371.2379,0.003065952447208237
371.7201,0.002996935766988863
372.2022,0.002997008984203734
372.6843,0.002963109413718357
373.1664,0.00283807041183149
373.6485,0.0026605865492792488
374.1306,0.0024865152877751105
374.6128,0.0023105704413818175
375.0949,0.0021631652774395534
375.577,0.0020757148299502507
376.0591,0.0020264716465682843
376.5412,0.0019719073657293853
377.0233,0.0019022860373845523
377.5055,0.0018349470496383867
377.9876,0.0017919127830539438
378.4697,0.001776774275335437
378.9518,0.0017401899120107096
379.4339,0.0016740214299380484
379.916,0.0015932002921290062
380.3982,0.0014952574783311044
380.8803,0.001389253012781885
381.3624,0.0013018127478191537
381.8445,0.0012497596719856724
382.3266,0.0012174117245969042
382.8087,0.001155452505056012
383.2909,0.001016926989166309
383.773,0.0009109797397187769
384.2551,0.0008642036370604187
384.7372,0.0008348013491441186
385.2193,0.0007866113299389757
385.7014,0.0007154131646222136
386.1836,0.0006424214199822154
386.6657,0.0005896744776952196
387.1478,0.0005582148345292602
387.6299,0.000531876032464327
388.112,0.0005276105235953061
388.5941,0.0005075931310024005
389.0763,0.000442022363239486
389.5584,0.0003574064887065783
390.0405,0.0002972786208136801
390.5226,0.0002827499009721408
391.0047,0.0002911092704051203
391.4868,0.0002855685213035741
391.969,0.0002640127913868245
392.4511,0.00024966876318200336
392.9332,0.00025697690796703046
393.4153,0.0002661933552079992
393.8974,0.0002552018026562883
394.3795,0.00022408400145380037
394.8617,0.000198662014686076
395.3438,0.00019984701833788916
395.8259,0.00021196844343326178
396.308,0.00020363157253518312
396.7901,0.00017065579965094978
397.2722,0.00014666324566097618
397.7544,0.0001653482788961126
398.2365,0.000212819023819534
398.7186,0.00021755656552747632
399.2007,0.00013207061834314532
399.6828,5.80077203960477e-05
400.1649,4.250236533810327e-05
400.6471,6.247949816047404e-05
401.1292,8.375525708472929e-05
401.6113,9.52309160425821e-05
402.0934,9.445200124808452e-05
402.5755,7.541125841805059e-05
403.0576,2.6040517071076566e-05
403.5398,3.843782560184842e-06
404.0219,1.2001310072406423e-05
404.504,6.081150333161967e-06
404.9861,1.6712808756436633e-05
405.4682,5.037223162585795e-05
405.9503,8.422995677584804e-05
406.4325,0.00011274874080329459
406.9146,0.0001338338925277758
407.3967,0.00014004702780059307
407.8788,0.00013171427840136477
408.3609,0.00010674454127808006
408.843,5.491620835249836e-05
409.3252,5.849129343175016e-06
409.8073,7.405819458958602e-05
410.2894,0.00014566356399276425
410.7715,0.00018743253043014454
411.2536,0.00014849105766878126
411.7357,4.7150533555680954e-05
412.2179,1.0777263704424866e-05
412.7,3.9657110426452265e-06
413.1821,1.3616001799070112e-05
413.6642,1.1586386661084544e-05
414.1463,6.17171178495997e-06
414.6284,3.526050395223444e-05
415.1106,8.269098910512103e-05
415.5927,0.00013263172404545646
416.0748,0.0001740959420090184
416.5569,0.00020709004344108043
417.039,0.00023456060909032427
417.5211,0.0002582571909746197
418.0033,0.0002735328718725108
418.4854,0.0002735553704074117
418.9675,0.0002521683310141965
419.4496,0.0002345724402164359
419.9317,0.00021387674588920343
420.4138,0.00019767353379709273
420.896,0.00018911114417956632
421.3781,0.00019147639963745924
421.8602,0.00021097113768791655
422.3423,0.00025322668343074896
422.8244,0.00031389849219545205
423.3065,0.0003765898838850567
423.7887,0.00044841660202061054
424.2708,0.0005066291851536323
424.7529,0.0005604433532017644
425.235,0.0005979024440472051
425.7171,0.0005995588017028349
426.1992,0.0005685423408838442
426.6814,0.0005383075101997701
427.1635,0.0005358307318318085
427.6456,0.0005594934689373092
428.1277,0.0005820409769421224
428.6098,0.0006106112069728659
429.0919,0.0006242965226849548
429.5741,0.0005859724019631547
430.0562,0.0005331992760364036
430.5383,0.0005310691884540906
431.0204,0.0006213198307505545
431.5025,0.0007077151745341635
431.9846,0.0006976398069327783
432.4668,0.0006160409180465611
432.9489,0.0005438545627701463
433.431,0.0004958822556807462
433.9131,0.0004815534042893388
434.3952,0.0005291762082762279
434.8773,0.0006491758292746403
435.3595,0.0007137335326201348
435.8416,0.0006675407432696576
436.3237,0.0006078304074544125
436.8058,0.0005901520866796445
437.2879,0.000608285226974606
437.7701,0.0006450194189045997
438.2522,0.0006949957441997136
438.7343,0.0007387510306418618
439.2164,0.0007138663903477818
439.6985,0.0005349657019554492
440.1806,0.0004470144196234939
440.6628,0.0005246265584276405
441.1449,0.0006248294082421964
441.627,0.0006524046599622396
442.1091,0.0006125963147720897
442.5912,0.0005689035781360234
443.0733,0.0005689084269582004
443.5555,0.0006023105082882269
444.0376,0.0006338259129092208
444.5197,0.0006707574519018146
445.0018,0.0006850624470881116
445.4839,0.0006330311909544265
445.966,0.0005701245115601675
446.4482,0.0005626733265209217
446.9303,0.0006283171660340422
447.4124,0.0006747121512692961
447.8945,0.0006237612127166247
448.3766,0.0005176297080263705
448.8587,0.0004433937556157793
449.3409,0.00041307562216670607
449.823,0.00040194854503515075
450.3051,0.0003908380508754405
450.7872,0.0003819400257868289
451.2693,0.00039148144109009365
451.7514,0.00045987456277751766
452.2336,0.0004985447439380832
452.7157,0.00044742220556857144
453.1978,0.0003602026105031108
453.6799,0.0003174463268940697
454.162,0.00034047231667129956
454.6441,0.0003832125991671569
455.1263,0.00038434135648171796
455.6084,0.00033380164653786984
456.0905,0.0002986340605650114
456.5726,0.0002799123702342176
457.0547,0.0002770937499027843
457.5368,0.0003125217176265424
458.019,0.00035869448134142885
458.5011,0.00036639858094542174
458.9832,0.00030878807606210594
459.4653,0.0002353714776229676
459.9474,0.0002233429559605044
460.4295,0.0002738406751043006
460.9117,0.0003111710297209445
461.3938,0.0003154682013987806
461.8759,0.0003098931226362219
462.358,0.0003098108381238799
462.8401,0.00031615125497884086
463.3222,0.00033655097720039517
463.8044,0.00039938031788093275
464.2865,0.00045659365573973853
464.7686,0.00045613907866065394
465.2507,0.00041005456350938713
465.7328,0.0003712036182580666
466.2149,0.00036529823772881733
466.6971,0.00036857322920354066
467.1792,0.0003339827500461771
467.6613,0.0002350737599413058
468.1434,0.00014736404593020388
468.6255,5.433202225662517e-05
469.1076,9.464435402384224e-06
469.5898,7.757999111311366e-06
