wavelength,intensity
165.8563,0.0
166.3384,1.776757304457818e-05
166.8205,5.2510756158758916e-05
167.3026,9.475325856993546e-05
167.7847,3.9596742590349826e-05
168.2668,2.616777925793154e-05
168.749,8.996839235754655e-06
169.2311,0.00012318922471460053
169.7132,0.00026055907232666055
170.1953,0.00034253093261472515
170.6774,0.00039119671825186593
171.1595,0.0004384585274276846
171.6417,0.0004937608959783515
172.1238,0.0005582749599242537
172.6059,0.0006380249929144182
173.088,0.0007408515404088959
173.5701,0.0008423242967515825
174.0522,0.0009071724445454733
174.5344,0.0009688232789959148
175.0165,0.0010816209444149743
175.4986,0.0012957623875068148
175.9807,0.0015635356829329357
176.4628,0.0017539038357736421
176.9449,0.0018389017490058682
177.4271,0.0018914300094126858
177.9092,0.0019169314198876678
178.3913,0.0019374681213357194
178.8734,0.0019829112827776476
179.3555,0.0020686913110270076
179.8376,0.002188504737253827
180.3197,0.0023290672433400467
180.8019,0.0025065651674766013
181.284,0.0026761129627719074
181.7661,0.0028042115714523993
182.2482,0.0029246150993381477
182.7303,0.0030782301498423702
183.2124,0.003285672460214603
183.6946,0.0035331117349596667
184.1767,0.003788281002019148
184.6588,0.004047736627883011
185.1409,0.0043193395230644496
185.623,0.004609217629030633
186.1051,0.0049073668558661755
186.5873,0.005201030922188083
187.0694,0.005482645665400391
187.5515,0.005759421284080147
188.0336,0.006057914777290251
188.5157,0.006387406790677289
188.9978,0.006720850594138504
189.48,0.007077665720492387
189.9621,0.007422436372558845
190.4442,0.007728658888318931
190.9263,0.00798400271297678
191.4084,0.008182930491606373
191.8905,0.008310905455321354
192.3727,0.008365406216589735
192.8548,0.008329859501210865
193.3369,0.00820153057347697
193.819,0.00800828076561653
194.3011,0.007777122865977069
194.7832,0.007517449043115246
195.2654,0.007215600164958726
195.7475,0.006826831300459056
196.2296,0.006259582140449793
196.7117,0.00575418940495127
197.1938,0.00535422945886731
197.6759,0.005024281656195642
198.1581,0.004751175626139364
198.6402,0.00453225906296771
199.1223,0.004331731173019741
199.6044,0.004121894029374336
200.0865,0.003881036060969982
200.5686,0.003652201232035475
201.0508,0.0034236864253646424
201.5329,0.003228011236651317
202.015,0.0030627187676984602
202.4971,0.0029051441690045796
202.9792,0.002749121193407307
203.4613,0.0025593765990985498
203.9435,0.0022521203144503493
204.4256,0.002007777982429673
204.9077,0.001872785318378061
205.3898,0.0017920529140148561
205.8719,0.001745602167324568
206.354,0.0017151016211851998
206.8362,0.001664722843649403
207.3183,0.0015719997869249364
207.8004,0.0014089416552311967
208.2825,0.0012867799444241034
208.7646,0.0012662495464448816
209.2467,0.001236392923890606
209.7289,0.0011035662287054162
210.211,0.0008782560086112991
210.6931,0.0006691810998121036
211.1752,0.0006207306988560608
211.6573,0.0008100941757417132
212.1395,0.0008861993491015003
212.6216,0.0007462637957227542
213.1037,0.0005891343189047127
213.5858,0.0005147044136070454
214.0679,0.0005202112209533533
214.55,0.000540436628017648
215.0322,0.0005093547080992692
215.5143,0.00041718102292744567
215.9964,0.00033886473816676944
216.4785,0.0002772565248632629
216.9606,0.00022623377525415178
217.4427,0.00017717261665670643
217.9249,0.00013572439980632823
218.407,0.0001187712688763378
218.8891,0.0001470722438115979
219.3712,0.0002228197195593949
219.8533,0.0002640844084903773
220.3354,0.00023984388573427694
220.8176,0.000209125578990944
221.2997,0.0001790264183513797
221.7818,0.00015459528839550528
222.2639,0.0001437469700509001
222.746,0.00015511614887374814
223.2281,0.00018509098571269664
223.7103,0.0001975078010550862
224.1924,0.0001651156324080648
224.6745,0.00013558354152208923
225.1566,0.00010382826566800396
225.6387,8.387065905253957e-05
226.1208,0.00010323040589359192
226.603,0.0001868205120949759
227.0851,0.0003071094138244624
227.5672,0.0003478130455413554
228.0493,0.00023998474401851596
228.5314,0.00014013876751618005
229.0135,7.932964010742708e-05
229.4957,3.890895655984495e-05
229.9778,5.554364594218951e-06
230.4599,6.550879981549373e-05
230.942,0.00012934965329035485
231.4241,0.0001674264355929111
231.9062,0.00016354713541028048
232.3884,0.0001598418594555788
232.8705,0.00016850486213327597
233.3526,0.00017624566732114802
233.8347,0.00017522052933650732
234.3168,0.00016216328156099254
234.7989,0.00013180131475944016
235.2811,6.305005906603013e-05
235.7632,9.131200098276616e-05
236.2453,0.00016868717784712748
236.7274,8.085081260076486e-05
237.2095,2.4297380044946733e-05
237.6916,4.0421847264904575e-05
238.1738,4.939146036413593e-05
238.6559,0.00017278191119907789
239.138,0.0002315963786289186
239.6201,0.00020093727600436562
240.1022,0.000156526040898126
240.5843,4.380513233412683e-05
241.0665,2.9749938768739447e-05
241.5486,2.307807097623201e-05
242.0307,0.00018239906510474584
242.5128,0.00033624855616122177
242.9949,0.00036934268879479327
243.477,0.00027196495673338774
243.9592,0.00019447137163146645
244.4413,0.00014205652517536665
244.9234,9.695986056620015e-05
245.4055,4.642723475155245e-05
245.8876,1.4714575195579973e-06
246.3697,1.8914668604612304e-05
246.8519,5.6467007149337e-06
247.334,6.927919545203115e-05
247.8161,0.00011733533867686997
248.2982,0.00013972564786670798
248.7803,0.00015922508927467688
249.2624,0.00019121121755260445
249.7446,0.00022497657264012455
250.2267,0.00024035645472659728
250.7088,0.00022066878204172108
251.1909,0.00018224991533458433
251.673,0.00017473399851927697
252.1551,0.00021427507663103598
252.6373,0.0002526004095583803
253.1194,0.00028100204604203285
253.6015,0.0002976461615346893
254.0836,0.0002929098320322912
254.5657,0.00025746702691267174
255.0478,0.00022207154629749886
255.53,0.00024764268283538476
256.0121,0.0003573188704898417
256.4942,0.0004390895046575649
256.9763,0.0004311580922699188
257.4584,0.0003997744786356931
257.9406,0.0003895773086212241
258.4227,0.0004100095664395854
258.9048,0.000447969152710126
259.3869,0.0004953731293521715
259.869,0.0005530498691464238
260.3511,0.0006030625606078645
260.8333,0.0006437781204273128
261.3154,0.0006734984910784175
261.7975,0.0006811397499469977
262.2796,0.000669606341517018
262.7617,0.0006745545645485468
263.2438,0.0007450932900492501
263.726,0.0008638409451615863
264.2081,0.000920188137914932
264.6902,0.0008628794237239066
265.1723,0.0008035133542832214
265.6544,0.0008314711780730222
266.1365,0.0009256469419216886
266.6187,0.0010175840045712793
267.1008,0.001062219837120753
267.5829,0.001085162039250766
268.065,0.0011511278405564329
268.5471,0.0012793399116758646
269.0292,0.0013922607371782175
269.5114,0.0014019593512964573
269.9935,0.0013617970420873936
270.4756,0.0013648217373613452
270.9577,0.0014586406278977915
271.4398,0.001585981365672034
271.9219,0.0016883002414845901
272.4041,0.001765459063903418
272.8862,0.0018260703108791316
273.3683,0.0018681023259196087
273.8504,0.0018980864724971371
274.3325,0.0019281952338046117
274.8146,0.0019553942169237273
275.2968,0.0019892753618848315
275.7789,0.0020542597615818936
276.261,0.0021369796981554104
276.7431,0.0021733177413135515
277.2252,0.0021182996107188944
277.7073,0.002037208393514599
278.1895,0.002050085895452016
278.6716,0.002176482082666198
279.1537,0.002282605344358751
279.6358,0.002328945053021189
280.1179,0.002321807101894571
280.6,0.002254944753368395
281.0822,0.002118222514446282
281.5643,0.0019761612374251817
282.0464,0.0019176592280964208
282.5285,0.0019527685797149346
283.0106,0.0019449721585366934
283.4927,0.0018546604210808004
283.9749,0.0017313669951776183
284.457,0.001609379357086676
284.9391,0.001493877503539558
285.4212,0.001394236632215305
285.9033,0.0013246090004016416
286.3854,0.0012833183702720128
286.8676,0.0012127064275564384
287.3497,0.0010828050267905737
287.8318,0.0009538612684046475
288.3139,0.0008514677207305672
288.796,0.0007719334603272747
289.2781,0.000706676556823871
289.7603,0.0006541327801860875
290.2424,0.0006116604920919475
290.7245,0.0005682223186201687
291.2066,0.0005338039241618634
291.6887,0.0004869919402193959
292.1708,0.00042750605638271953
292.653,0.0003548151811587982
293.1351,0.00025958009512914396
293.6172,0.00014181975718846853
294.0993,2.2591535310179462e-05
294.5814,4.918664611538358e-05
295.0635,2.9400721746736767e-05
295.5457,5.1782705508897044e-05
296.0278,0.0001786748302553325
296.5099,0.0002922350699381534
296.992,0.00029162775496049644
297.4741,0.0001784333589109228
297.9562,3.845437948076037e-05
298.4384,3.9961349773941994e-05
298.9205,5.022012407416852e-05
299.4026,4.4510674751443534e-05
299.8847,1.49631646109454e-05
300.3668,2.2051725634869283e-05
300.8489,8.475493875294124e-05
301.331,0.00015143691109413646
301.8131,0.00017461680248726126
302.2953,0.00011559044152828992
302.7774,3.7810388012157265e-06
303.2595,6.833808755571619e-05
303.7416,2.26933411806057e-05
304.2237,3.557304448329103e-06
304.7058,6.878674907174496e-05
305.188,0.00016443733067373796
305.6701,0.00022960758572484037
306.1522,0.0002410465875870358
306.6343,0.00021919493405282985
307.1164,0.00018902595037391815
307.5985,0.0001401103534182234
308.0807,0.00012154018878045782
308.5628,0.000155768412432985
309.0449,0.00021365239088707818
309.527,0.00030132777523716764
310.0091,0.000412212628795661
310.4912,0.000491465463559806
310.9734,0.0004616798277622001
311.4555,0.00033715887403671345
311.9376,0.00028540691006041796
312.4197,0.0003672639502393335
312.9018,0.0004518401614068342
313.3839,0.00044266454124859494
313.8661,0.0003721175242619691
314.3482,0.0003233274148242127
314.8303,0.0003566192824261583
315.3124,0.00042473597276127705
315.7945,0.0004297884454696092
316.2766,0.00035598355335054457
316.7588,0.0003132450164306709
317.2409,0.00039594371516305324
317.723,0.0005362836118231312
318.2051,0.0006159967937647513
318.6872,0.0005859059730993312
319.1693,0.0005550999511628181
319.6515,0.0006202681212203844
320.1336,0.0007593449481916012
320.6157,0.0008739517091648629
321.0978,0.0009273193006905021
321.5799,0.000946422205420844
322.062,0.0009743955454416108
322.5442,0.0010139730866961401
323.0263,0.0010443102275281468
323.5084,0.0010552452913014968
323.9905,0.001055633197075649
324.4726,0.0010482852919487713
324.9547,0.0010339356875984466
325.4369,0.0010391918108382087
325.919,0.001096104861139599
326.4011,0.0012112760250142522
326.8832,0.0013007901312220448
327.3653,0.0013495780102016
327.8474,0.0013881741498475242
328.3296,0.0014350666242381282
328.8117,0.0014866862153689944
329.2938,0.0015273081929204286
329.7759,0.0015463136363250143
330.258,0.00155024021252387
330.7401,0.0015679631424626653
331.2223,0.0016087601624946856
331.7044,0.0016522031847886413
332.1865,0.0016899852071910635
332.6686,0.001732400279183516
333.1507,0.001790191936063361
333.6328,0.0018666035549847284
334.115,0.001958823303967232
334.5971,0.002068591910172381
335.0792,0.0022164834109789887
335.5613,0.0023229349379329184
336.0434,0.00239727368537366
336.5255,0.0024279080590051106
337.0077,0.0023681143234484227
337.4898,0.0022508504079222186
337.9719,0.002169367405886029
338.454,0.0022045451258972375
338.9361,0.002342920813181674
339.4182,0.0024634421674463213
339.9004,0.002551106932875843
340.3825,0.002641379394872103
340.8646,0.00274565040649308
341.3467,0.002858308425833445
341.8288,0.002975666408509881
342.3109,0.003099410774875515
342.7931,0.003214981966579763
343.2752,0.003288267549843681
343.7573,0.003308822676816005
344.2394,0.0033653691561608213
344.7215,0.0035273581225645544
345.2036,0.0036942521574824414
345.6858,0.003766491849802802
346.1679,0.003743236413760161
346.65,0.003745626398211157
347.1321,0.0038981974973006923
347.6142,0.004134045662631871
348.0963,0.004254364336129524
348.5785,0.004212047210345044
349.0606,0.004140799587042079
349.5427,0.004147775587507988
350.0248,0.004210336545881033
350.5069,0.004263969852861967
350.989,0.004307271774430575
351.4712,0.004329953109927471
351.9533,0.00431252304884816
352.4354,0.00426052864376302
352.9175,0.004215991727185954
353.3996,0.004196059188981144
353.8817,0.0041860594630057195
354.3639,0.004168705043552368
354.846,0.004172459971446161
355.3281,0.004141439631569429
355.8102,0.004026080333394312
356.2923,0.003878925368676377
356.7744,0.0037749321945661366
357.2566,0.0037281783964897915
357.7387,0.003695346051765551
358.2208,0.0036290330747920183
358.7029,0.003523495550818434
359.185,0.0033982941133886405
359.6671,0.003250116047191379
360.1493,0.0030977073836447695
360.6314,0.0029444356297506713
361.1135,0.0027888810503756876
361.5956,0.002633800685809605
362.0777,0.0024793758820018394
362.5598,0.002328632788872996
363.042,0.002189722761384665
363.5241,0.0020495437971326386
364.0062,0.0019458774336371212
364.4883,0.0019263129210355383
364.9704,0.001913963455833186
365.4525,0.0018327980516495835
365.9347,0.00167206250577858
366.4168,0.0014958805519808363
366.8989,0.0013796096752364618
367.381,0.0013262134756599786
367.8631,0.001268964886863947
368.3452,0.0012009853697082125
368.8274,0.0011339828902211242
369.3095,0.0010733890990052475
369.7916,0.0010179791835786968
370.2737,0.0009649631316608829
370.7558,0.0009128853268342995
371.2379,0.0008624832749520537
371.7201,0.0008104127433587357
372.2022,0.0007544059379222084
372.6843,0.000721656508057193
373.1664,0.0007496439096622727
373.6485,0.0007913680244945167
374.1306,0.0007726118105498234
374.6128,0.0006756804610580235
375.0949,0.0005743284403875417
375.577,0.0005030119638096633
376.0591,0.0004553370834725943
376.5412,0.00042303844860536535
377.0233,0.0004061279388223099
377.5055,0.0003912417153216676
377.9876,0.00036173561412256017
378.4697,0.0003155131984685823
378.9518,0.0002872666758063688
379.4339,0.00029528095456501815
379.916,0.000305400058542439
380.3982,0.0002983742121845512
380.8803,0.0002766172561474601
381.3624,0.00024448435402223774
381.8445,0.00020104972019064797
382.3266,0.00016026681023116254
382.8087,0.00016520916618785727
383.2909,0.00027521565560900473
383.773,0.0003545369557422876
384.2551,0.000393689788662342
384.7372,0.0004057822662893185
385.2193,0.00039010646058538947
385.7014,0.0003542220732301195
386.1836,0.0003262584793419283
386.6657,0.00032060824383562764
387.1478,0.00033469896956992736
387.6299,0.0003829303007400176
388.112,0.0004980899244178898
388.5941,0.0006114616903826946
389.0763,0.0007262284624877941
389.5584,0.0008186935618724493
390.0405,0.000836419401104551
390.5226,0.0007356182066333653
391.0047,0.0006160006728224928
391.4868,0.0006574794372525854
391.969,0.0008809524386238744
392.4511,0.0010675671182174408
392.9332,0.0011451434242257
393.4153,0.00117505580823501
393.8974,0.0012268455930242853
394.3795,0.0013006965489540305
394.8617,0.001349877182529915
395.3438,0.001344118236430408
395.8259,0.0012951645277324028
396.308,0.0012217858470826878
396.7901,0.0011255614558642803
397.2722,0.001015673083751362
397.7544,0.0008844435905912439
398.2365,0.0007446375007646211
398.7186,0.0006530650695427336
399.2007,0.0006509083134384475
399.6828,0.0006504748287358325
400.1649,0.0006226382255004543
400.6471,0.0005732830343262016
401.1292,0.0004942035934431026
401.6113,0.00038190273834428853
402.0934,0.00029344252363664564
402.5755,0.00032232472688625103
403.0576,0.0005341030964901782
403.5398,0.0006626812536839661
404.0219,0.0006739256723122026
404.504,0.0006474040696512003
404.9861,0.0006009615659586128
405.4682,0.0005549981258971032
405.9503,0.0005355368932078883
406.4325,0.0005575612132998137
406.9146,0.00061232962955236
407.3967,0.0006811989055775559
407.8788,0.0007986669565174078
408.3609,0.0008515966994004728
408.843,0.0007611942889698717
409.3252,0.00064354149790508
409.8073,0.0005890596470431884
410.2894,0.0006114878740224499
410.7715,0.0006651847005739007
411.2536,0.0007292424903529565
411.7357,0.0007958662768280289
412.2179,0.0008172030339352696
412.7,0.000770292618902611
413.1821,0.0007187986122661267
413.6642,0.0006958593194294198
414.1463,0.0007006557743268117
414.6284,0.0007420283495512301
415.1106,0.000865810536729844
415.5927,0.000972822102645206
416.0748,0.0009666757356537647
416.5569,0.0008815929680334432
417.039,0.0008246561585033861
417.5211,0.0008345501801553551
418.0033,0.0008780688440752706
418.4854,0.0009106849313304212
418.9675,0.0009370421589196266
419.4496,0.0009315052888758219
419.9317,0.0008585906405084365
420.4138,0.0007817460217666718
420.896,0.0007403996301820086
421.3781,0.0007332931963995407
421.8602,0.000746040265020399
422.3423,0.0007719809787846084
422.8244,0.0008047953828667944
423.3065,0.0008151039788148886
423.7887,0.0007687026901108048
424.2708,0.0007542653220790783
424.7529,0.0008186993804590617
425.235,0.0008904570998550382
425.7171,0.0009022668911491013
426.1992,0.0008497832399063112
426.6814,0.0007897635492361797
427.1635,0.0007916448922408178
427.6456,0.0008461088024606548
428.1277,0.0008282040416902255
428.6098,0.0006809661621130646
429.0919,0.0005715869163287211
429.5741,0.0006505611377705813
430.0562,0.000804099576884409
430.5383,0.0008491465895544841
431.0204,0.000693392238705812
431.5025,0.0005281012243996087
431.9846,0.0005280032781916352
432.4668,0.0006527809285631672
432.9489,0.0007715154918556259
433.431,0.0008630452534423566
433.9131,0.0008961467077974152
434.3952,0.0008036743351794946
434.8773,0.0005665819620777226
435.3595,0.00042143319753548014
435.8416,0.0004564735019261949
436.3237,0.0005192206065826122
436.8058,0.0005047759653176204
437.2879,0.0004403597021150262
437.7701,0.0004178024964658592
438.2522,0.0004881280192554441
438.7343,0.0006018421120659382
439.2164,0.0006293310547512325
439.6985,0.0005007805358438528
440.1806,0.0004087926575378483
440.6628,0.0003935252681258797
441.1449,0.00038119839843487165
441.627,0.00032060111606702763
442.1091,0.00021608984530718515
442.5912,9.931444861530387e-05
443.0733,2.936875831094663e-05
443.5555,0.00014212872413758076
444.0376,0.00010023659761690715
444.5197,0.000175747305377806
445.0018,0.0003836654306702578
445.4839,0.00034960172755419295
445.966,0.00021951932025646457
446.4482,0.00012645767027938501
446.9303,8.942503334440289e-05
447.4124,6.908034525455639e-05
447.8945,3.1861828721422695e-05
448.3766,3.766831752237403e-06
448.8587,2.037310218780314e-05
449.3409,0.00011807522045284349
449.823,0.00018920821759954787
450.3051,0.00014548003607336852
450.7872,1.6182459133193594e-06
451.2693,0.00011503757882367953
451.7514,0.00020771093512083277
452.2336,0.00025519530523457123
452.7157,0.00022875763568545114
453.1978,0.00015939198573400583
453.6799,8.162497554952906e-05
454.162,7.824883764419556e-06
454.6441,5.360222603077962e-05
455.1263,8.93030854666538e-05
455.6084,9.353988930838744e-05
456.0905,0.00010447223774131834
456.5726,0.0001351762889474512
457.0547,0.0001591422229036736
457.5368,0.00016087412520881955
458.019,0.0001522797818531474
458.5011,0.00015392052630136758
458.9832,0.00017584554251511003
459.4653,0.00020433712465014415
459.9474,0.00022471968204119228
460.4295,0.00023711404733690276
460.9117,0.00022944185298283385
461.3938,0.00020001391479721812
461.8759,0.00014788199711514058
462.358,5.579694841271089e-05
462.8401,6.566982919998864e-05
463.3222,0.00015882617667418314
463.8044,0.00022226690534300625
464.2865,0.0002403457873178081
464.7686,0.00016734473293923032
465.2507,2.8749631602466686e-05
465.7328,7.752078699433369e-05
466.2149,0.000108259167861479
466.6971,8.696037703188346e-05
467.1792,5.752055923193433e-05
467.6613,1.6606270435565736e-05
468.1434,2.6547776603113196e-05
468.6255,0.00010671433311591794
469.1076,0.0001594144842689067
469.5898,0.00012078847587837267
470.0719,1.7017043255104187e-05
470.554,7.48454008700061e-05
471.0361,0.00010654152109353316
471.5182,9.350318372450829e-05
472.0003,7.41635594954901e-05
472.4825,3.420692762552623e-05
472.9646,2.770907921212564e-05
473.4467,0.00012493174594031389
473.9288,0.0002169528386782302
474.4109,0.00020279228990458312
474.893,9.378136065279717e-05
475.3752,2.9449253607905383e-05
475.8573,0.000131049601857355
476.3394,0.00031163981384900745
476.8215,0.0004176888400740326
477.3036,0.00044487468288504874
477.7857,0.000476837148910753
