wavelength,intensity
206.0,0.0
207.0,3.5697028866354416e-05
208.0,6.736468650370306e-05
209.0,7.641743750797958e-05
210.0,8.895164283527191e-05
211.0,7.598589233423527e-05
212.0,6.478026428341416e-05
213.0,8.848130708411239e-05
214.0,0.00013248436833950038
215.0,0.00017114887637811895
216.0,0.0001923042875359435
217.0,0.00021377002331308983
218.0,0.00023007661229401213
219.0,0.00024586922612418276
220.0,0.0002649008531685241
221.0,0.00028767577093343405
222.0,0.0003069401414422667
223.0,0.0002982171103460195
224.0,0.0002897462180029713
225.0,0.0002669955443489459
226.0,0.00023908087507651962
227.0,0.0002122087025721273
228.0,0.00018777063880053992
229.0,0.00016361865553738978
230.0,0.00015603509765271464
231.0,0.00014867458558817702
232.0,0.00014164379343166875
233.0,0.00013584945093027053
234.0,0.00013419600256794686
235.0,0.00014776300701891938
236.0,0.00016347803969425962
237.0,0.00016822988542762382
238.0,0.0001705185294951217
239.0,0.0001688214417332059
240.0,0.00016730376039183548
241.0,0.0001625858564137096
242.0,0.00015436710282386027
243.0,0.0001443203432733188
244.0,0.00012710217572313887
245.0,0.00010668863435838037
246.0,9.197245905148201e-05
247.0,8.46264934534751e-05
248.0,7.674230859383202e-05
249.0,6.877084493500471e-05
250.0,6.081392774270811e-05
251.0,5.136842214210251e-05
252.0,4.137984845768387e-05
253.0,3.215738867721577e-05
254.0,2.422956441798058e-05
255.0,1.6437507179698652e-05
256.0,1.8789185935496247e-05
257.0,2.1131167046940037e-05
258.0,1.806186260896091e-05
259.0,1.2160846019670861e-05
260.0,7.5108255520215965e-06
261.0,5.77979603486749e-06
262.0,4.097254739482407e-06
263.0,3.4038731681853844e-06
264.0,1.1176535117759704e-05
265.0,1.4013096091247524e-05
266.0,1.347002800743447e-05
267.0,1.2897866990560006e-05
268.0,1.2296613040624124e-05
269.0,1.1671114979803734e-05
270.0,1.1026221630275734e-05
271.0,1.0366781814217026e-05
272.0,1.3067575766751583e-05
273.0,1.8575837759712548e-05
274.0,2.206214090490527e-05
275.0,1.7237562838887525e-05
276.0,1.2412984772869779e-05
277.0,9.348529157067552e-06
278.0,6.599246982763973e-06
279.0,4.902159220848182e-06
280.0,4.242719404789475e-06
281.0,2.608666331173415e-06
282.0,4.237870582612573e-06
283.0,1.1069861029867853e-05
284.0,1.789215383276933e-05
285.0,2.4690202524786295e-05
286.0,3.2501655051775835e-05
287.0,4.149622018992952e-05
288.0,5.108234163366528e-05
289.0,6.429538206572393e-05
290.0,7.741144605424453e-05
291.0,0.00010196588155807757
292.0,0.00012945870330111338
293.0,0.00016548545207549715
294.0,0.00021177230857620608
295.0,0.0002620448969063287
296.0,0.0003414298135865725
297.0,0.0004208001838002855
298.0,0.0005311351324356964
299.0,0.0006499991592802783
300.0,0.0007567508283269584
301.0,0.0008485826715353103
302.0,0.0009257807694137712
303.0,0.0008907383315412985
304.0,0.0008556764983801183
305.0,0.0007554270998726641
306.0,0.0006369752229131188
307.0,0.0005269554477192066
308.0,0.0004272006290737965
309.0,0.0003327310266012098
310.0,0.0002766495493031583
311.0,0.0002205826184716375
312.0,0.00019425836287323515
313.0,0.00017570192040223018
314.0,0.00016223674121697266
315.0,0.0001533827919219491
316.0,0.000146046523968296
317.0,0.00014771936761932727
318.0,0.00014941160655906617
319.0,0.00015789219654646823
320.0,0.0001679147119861252
321.0,0.00018099198539723056
322.0,0.00019724038851203
323.0,0.00021276631712247108
324.0,0.00022479139612118865
325.0,0.00023678253336466794
326.0,0.00023106092319592327
327.0,0.0002220857533464772
328.0,0.00020977459383932236
329.0,0.0001944474669381343
330.0,0.0001795082458110985
331.0,0.00016617398482461727
332.0,0.00015279608443854393
333.0,0.00015610782998536817
334.0,0.0001614706273130221
335.0,0.0001691851033964736
336.0,0.00017865970193014057
337.0,0.00018486134549439856
338.0,0.0001816853669685276
339.0,0.00017846574904306446
340.0,0.0001692772310178347
341.0,0.00015968626075192204
342.0,0.00014872792263212294
343.0,0.00013692588945354286
344.0,0.0001237128490214842
345.0,0.00010755657352804587
346.0,9.143908861202278e-05
347.0,8.985837258235263e-05
348.0,8.820492422002896e-05
349.0,8.942197858643143e-05
350.0,9.187063378576707e-05
351.0,9.429019605204131e-05
352.0,9.66903630296079e-05
353.0,9.890142594227534e-05
354.0,9.917780880635878e-05
355.0,9.944934284826531e-05
356.0,9.804803323914055e-05
357.0,9.613759730144107e-05
358.0,9.518237933259131e-05
359.0,9.529875106483697e-05
360.0,9.501751937857663e-05
361.0,9.290828173162417e-05
362.0,9.072631175201813e-05
363.0,8.481074869619739e-05
364.0,7.835696637874048e-05
365.0,7.194197463869879e-05
366.0,6.548819232124189e-05
367.0,6.0062360305288265e-05
368.0,5.7657344505544745e-05
369.0,5.52086893062091e-05
370.0,5.0675040570805496e-05
371.0,4.5608021395942636e-05
372.0,4.4240653542056196e-05
373.0,4.478372162586925e-05
374.0,4.537527793145133e-05
375.0,4.601532245880242e-05
376.0,4.653899525390787e-05
377.0,4.516192975566763e-05
378.0,4.38333524791964e-05
379.0,3.9241517877669966e-05
380.0,3.3549000641986715e-05
381.0,2.5398130562614027e-05
382.0,1.4851942327851615e-05
383.0,7.573860240321326e-06
384.0,1.2514810038584726e-05
385.0,1.7673956834808727e-05
386.0,1.7256958127595135e-05
387.0,1.637447249139892e-05
388.0,1.2922111101444516e-05
389.0,7.96661483665041e-06
390.0,5.4743202377226486e-06
391.0,7.360512064537627e-06
392.0,9.314587401829237e-06
393.0,1.134139507177438e-05
394.0,1.344578389654996e-05
395.0,1.5618056231802172e-05
396.0,1.7858212077531013e-05
397.0,2.0166251433736488e-05
398.0,2.2522779011710982e-05
399.0,2.4496249637710203e-05
400.0,2.4782330146147438e-05
401.0,2.5145991809415108e-05
402.0,2.9694187011349424e-05
403.0,3.461574152090522e-05
404.0,4.2078078851157794e-05
405.0,5.0995062834481035e-05
406.0,5.981022155208935e-05
407.0,6.862053144752075e-05
408.0,7.833272226785598e-05
409.0,9.6239422567156e-05
410.0,0.00011370972887053484
411.0,0.00013436571134413844
412.0,0.00015603509765271464
413.0,0.00017708868354482423
414.0,0.00019730342320032978
415.0,0.0002149773800351385
416.0,0.00022445682739098238
417.0,0.00023366474070491978
418.0,0.00022821951340025855
419.0,0.0002223087991666147
420.0,0.00021791091745216438
421.0,0.00021386699975662785
422.0,0.000207956285522984
423.0,0.00019954842786823552
424.0,0.0001937249924337759
425.0,0.000202351047086485
426.0,0.00021094800880613272
427.0,0.0002270654937221558
428.0,0.00024415274307355937
429.0,0.0002665009644869019
430.0,0.0002921318385140072
431.0,0.0003207447381799074
432.0,0.0003549386321714221
433.0,0.0003889482709202146
434.0,0.0004209844390430078
435.0,0.0004530157583436241
436.0,0.00047101943508646223
437.0,0.0004859198656360828
438.0,0.0004686338145754263
439.0,0.0004256441571550109
440.0,0.00038263995326806474
441.0,0.00033960180762588027
442.0,0.00029677701015947956
443.0,0.0002601635539016906
444.0,0.00022354524882172477
445.0,0.00019853017521108605
446.0,0.00017689957947992504
447.0,0.00016080633867478648
448.0,0.0001499013375989333
449.0,0.00014009217033506002
450.0,0.00013346383041923463
451.0,0.00012683064168123235
452.0,0.00011803487825233165
453.0,0.00010923426600125406
454.0,0.00010364842285346266
455.0,9.914386705112046e-05
456.0,9.463446242660135e-05
457.0,9.012505780208226e-05
458.0,8.61247795061379e-05
459.0,8.376340310598649e-05
460.0,8.13923290614813e-05
461.0,8.328821853265007e-05
462.0,8.522289858123408e-05
463.0,8.237179114121554e-05
464.0,7.783329358363503e-05
465.0,7.541373131736081e-05
466.0,7.51858366750464e-05
467.0,7.390574762034422e-05
468.0,6.935270359623299e-05
469.0,6.479481074994486e-05
470.0,6.454267199674595e-05
471.0,6.429538206572393e-05
472.0,6.405294095687882e-05
473.0,6.38056510258568e-05
474.0,6.353411698395028e-05
475.0,6.323349000898235e-05
476.0,6.349532640653506e-05
477.0,6.533787883375791e-05
478.0,6.706890835091203e-05
479.0,6.454752081892285e-05
480.0,6.202613328693367e-05
481.0,6.290861892312988e-05
482.0,6.474632252817584e-05
483.0,6.65985725997525e-05
484.0,6.846536913785988e-05
485.0,6.967272585990854e-05
486.0,6.93817965292944e-05
487.0,6.921693657527973e-05
488.0,7.105948900250258e-05
489.0,7.288264614101783e-05
490.0,6.926057597487185e-05
491.0,6.450873024150763e-05
492.0,5.9800523907735544e-05
493.0,5.512141050702487e-05
494.0,5.3589182699123745e-05
495.0,5.759915863942191e-05
496.0,6.0183580859710824e-05
497.0,5.329825336850962e-05
498.0,4.6403228232954606e-05
499.0,4.146227843469121e-05
500.0,3.6749223278742205e-05
501.0,3.059121911407634e-05
502.0,2.371558926722894e-05
503.0,1.8755244180257932e-05
504.0,1.623870547044566e-05
505.0,1.327122629818148e-05
506.0,8.5921128974708e-06
507.0,3.917848318937024e-06
508.0,7.661139039505567e-07
509.0,5.45492494901504e-06
510.0,5.168844440577807e-06
511.0,3.2971990802935355e-06
512.0,1.4013096091247523e-06
513.0,4.994286842209325e-07
514.0,3.539640189138648e-07
515.0,4.305754093089205e-06
516.0,7.99085894753492e-06
517.0,1.755273628038617e-06
518.0,4.4754628692807834e-06
519.0,7.030792156508273e-07
520.0,7.593255529028935e-06
521.0,1.0240712437617568e-05
522.0,1.0604374100885236e-05
523.0,9.091541581691733e-06
524.0,5.110658574454979e-06
525.0,2.075295891714166e-06
526.0,2.487445776750858e-06
527.0,2.9092933061413544e-06
528.0,3.219617925463099e-06
529.0,9.348529157067552e-06
530.0,1.3765806160225509e-05
531.0,1.7707898590047046e-05
532.0,2.1640293375514775e-05
533.0,2.5567839338805602e-05
534.0,3.262772442837529e-05
535.0,4.5331638531859206e-05
536.0,5.965021042025157e-05
537.0,8.33367067544191e-05
538.0,0.00010701835426640973
539.0,0.00013484574473965178
540.0,0.00016306588980922294
541.0,0.00017849484197612588
542.0,0.0001890652743217728
543.0,0.00018710150134012744
544.0,0.00017353449688915489
545.0,0.00015588963298740756
546.0,0.00012920656454791445
547.0,0.0001035078070103325
548.0,8.571262962110121e-05
549.0,6.797078927581585e-05
550.0,5.6241488429889286e-05
551.0,4.518617386655214e-05
552.0,4.018703820216591e-05
553.0,3.7738383002830274e-05
554.0,3.6288585171936496e-05
555.0,3.5866737642546e-05
556.0,3.612372521792182e-05
557.0,3.798567293385228e-05
558.0,3.9585784252230026e-05
559.0,3.911544850107051e-05
560.0,3.871299626038762e-05
561.0,4.050706046584146e-05
562.0,4.2596902824086334e-05
563.0,4.3047843286538245e-05
564.0,4.279085571116242e-05
565.0,4.70481215824826e-05
566.0,5.5722664456960745e-05
567.0,6.566759874178726e-05
568.0,7.858486102105489e-05
569.0,9.130817041324641e-05
570.0,0.00010214043915644605
571.0,0.00011289997556699216
572.0,0.00012561843613700677
573.0,0.00013842417550620563
574.0,0.00015923532028947016
575.0,0.00018296545602322978
576.0,0.00021385245329009716
577.0,0.0002508635129663921
578.0,0.00028944074220582644
579.0,0.000331033938839294
580.0,0.0003736938763516801
581.0,0.0004202765110051801
582.0,0.000466466391062351
583.0,0.0004929070183929989
584.0,0.0005189161005499027
585.0,0.0005116719602176107
586.0,0.0004954478012136957
587.0,0.00047383175194906554
588.0,0.00044871485307271177
589.0,0.0004217117623695431
590.0,0.00039211940062390863
591.0,0.00036678430474959437
592.0,0.00035495802746012976
593.0,0.00034443608333625185
594.0,0.0003548368069057072
595.0,0.00036523268165298563
596.0,0.00039322978090241927
597.0,0.00042365129124030405
598.0,0.00046811499060249776
599.0,0.000518600927108404
600.0,0.00057024573211459
601.0,0.0006229524291775175
602.0,0.0006725801241581122
603.0,0.0007164086278151316
604.0,0.0007548937294332049
605.0,0.0007675103647375045
606.0,0.0007801173023974504
607.0,0.000750466754785693
608.0,0.0007207822654186975
609.0,0.0006670961062760358
610.0,0.0006081974632932039
611.0,0.0005492551809107801
612.0,0.0004902838055952949
613.0,0.0004323452294034898
614.0,0.00037551218466801844
615.0,0.00032421649485856943
616.0,0.0002851398369349141
617.0,0.0002470038505135779
618.0,0.0002165241543095703
619.0,0.00018616082983780838
620.0,0.00016683342464067594
621.0,0.00014786968110681124
622.0,0.0001325231589169156
623.0,0.0001177051583443023
624.0,0.00010406542156067625
625.0,9.164758796562956e-05
626.0,8.048559931440057e-05
627.0,7.035640978685175e-05
628.0,6.117274058379888e-05
629.0,5.484502764294143e-05
630.0,4.884218578793644e-05
631.0,4.482736102546137e-05
632.0,4.107922148271592e-05
633.0,3.5299425447848435e-05
634.0,2.9495385302096433e-05
635.0,2.560662991622082e-05
636.0,2.2464593145588158e-05
637.0,2.0937214159863945e-05
638.0,2.0166251433736488e-05
639.0,1.9278916975363375e-05
640.0,1.8323699006513632e-05
641.0,1.65393324454136e-05
642.0,1.3358505097365719e-05
643.0,1.0662559967008064e-05
644.0,9.736434931219733e-06
645.0,8.669694052301236e-06
646.0,5.488866704253355e-06
647.0,2.29834171185167e-06
648.0,3.1905249924016857e-06
649.0,4.499706980165295e-06
650.0,4.116650028190016e-06
651.0,3.1711297036940765e-06
652.0,2.2110629126674294e-06
653.0,1.24614729946388e-06
654.0,2.7638286408342867e-07
655.0,6.982303934739251e-07
656.0,1.677692473208181e-06
657.0,2.6668521972962417e-06
658.0,3.292350258116633e-06
659.0,2.036505314298948e-06
660.0,7.855091926581657e-07
661.0,4.6063810680571445e-07
662.0,1.7019365840926922e-06
663.0,9.649156132035493e-07
664.0,6.303468829972935e-08
665.0,5.576145503437597e-07
666.0,1.7843665611000307e-06
667.0,3.3941755238315807e-07
668.0,2.972327994441084e-06
669.0,4.257265871320182e-06
670.0,3.04990914927152e-06
671.0,2.5456316428736853e-06
672.0,3.617221343969084e-06
673.0,4.305754093089205e-06
674.0,3.122641481925054e-06
675.0,2.017110025591339e-06
676.0,3.112943837571249e-06
677.0,4.213626471728062e-06
678.0,3.2826526137628284e-06
679.0,2.1189352913062866e-06
680.0,9.60066791026647e-07
681.0,1.939528870760903e-07
682.0,1.3431237430019255e-06
683.0,2.49229459892776e-06
684.0,2.5116898876353694e-06
685.0,1.3867631425940455e-06
686.0,1.4013096091247523e-06
687.0,7.084129200454198e-06
688.0,1.0109794238841207e-05
689.0,4.426974647511761e-06
690.0,5.382192616361506e-07
691.0,6.158004164665867e-07
692.0,1.769820094569324e-06
693.0,1.5273789857242111e-06
694.0,4.926403331732694e-06
695.0,4.451218758396273e-06
696.0,3.292350258116633e-06
697.0,2.128632935660091e-06
698.0,9.697644353804515e-07
699.0,2.540782820696783e-06
700.0,5.944655988882168e-06
701.0,6.085271832012332e-06
702.0,2.632910442057926e-06
703.0,2.4195622662742263e-06
704.0,8.107230679780574e-06
705.0,1.1675963801980635e-05
706.0,8.218753589849326e-06
707.0,5.018530953093836e-06
708.0,3.849964808460393e-06
709.0,2.6813986638269487e-06
710.0,3.786930120160663e-06
711.0,4.907008043025084e-06
712.0,4.024522406828874e-06
713.0,2.8559562621954294e-06
714.0,5.818586612282709e-08
715.0,3.520244900431039e-06
716.0,2.5504804650505875e-06
717.0,8.630903474886018e-07
718.0,3.0644556158022267e-06
719.0,4.18938236084355e-06
720.0,4.35909113703513e-06
721.0,3.1905249924016857e-06
722.0,2.7201892412421668e-06
723.0,3.849964808460393e-06
724.0,4.98458919785552e-06
725.0,6.119213587250649e-06
726.0,7.263535620999582e-06
727.0,8.407857654748515e-06
728.0,9.552179688497447e-06
729.0,1.0706199366600186e-05
730.0,1.1855370222526019e-05
731.0,7.025943334331371e-06
732.0,1.280089054702196e-06
733.0,2.5456316428736853e-06
734.0,6.017388321535702e-06
735.0,4.960345086971009e-06
736.0,1.5273789857242111e-06
737.0,1.915284759876392e-06
738.0,5.406436727246017e-06
739.0,5.8088889679289045e-06
740.0,2.3953181553897153e-06
741.0,1.0134038349725717e-06
742.0,4.422125825334859e-06
743.0,7.2538379766457775e-06
744.0,8.349671788625687e-06
745.0,8.771519318016183e-06
746.0,5.246425595408243e-06
747.0,1.828005960692151e-06
748.0,6.061027721127822e-07
749.0,6.158004164665867e-07
750.0,1.828005960692151e-06
751.0,3.035362682740813e-06
752.0,4.237870582612573e-06
753.0,5.445227304661235e-06
754.0,6.6186422714715815e-06
755.0,7.675685506036274e-06
756.0,4.1554406056052346e-06
757.0,1.634053073616061e-06
758.0,7.855091926581657e-07
759.0,4.98458919785552e-06
760.0,8.48058998740205e-06
761.0,9.527935577612936e-06
762.0,9.620063198974079e-06
763.0,8.238148878556936e-06
764.0,9.605516732443373e-06
765.0,1.73927251485484e-05
766.0,2.4156832085327046e-05
767.0,2.7366752366436342e-05
768.0,2.9786314632710567e-05
769.0,2.622243033268741e-05
770.0,2.2828254808855828e-05
771.0,2.1635444553337873e-05
772.0,2.0389297253873992e-05
773.0,2.3642856934575408e-05
774.0,2.717279947936025e-05
775.0,2.454958668165613e-05
776.0,2.0820842427618292e-05
777.0,2.253247665606479e-05
778.0,2.5810280447650717e-05
779.0,3.0785172001152434e-05
780.0,3.638071279329764e-05
781.0,4.194231183020453e-05
782.0,4.760088731064946e-05
783.0,5.334189276810173e-05
784.0,5.902956118160808e-05
785.0,6.246252728285488e-05
786.0,6.350017522871196e-05
787.0,6.646765440097614e-05
788.0,7.235412452373549e-05
789.0,7.75714571860823e-05
790.0,8.126625968488184e-05
791.0,8.78412625567613e-05
792.0,0.00010327021472366427
793.0,0.0001174966589906955
794.0,0.00012578814491319835
795.0,0.00013396810792563248
796.0,0.00014407305334229677
797.0,0.00015481804328631218
798.0,0.00017498429472004868
799.0,0.00019510205793201615
800.0,0.0002106958700529338
801.0,0.00022622179866337483
802.0,0.0002521823925985095
803.0,0.0002794618661657616
804.0,0.000322155745433386
805.0,0.0003682147072917805
806.0,0.0004160871286443365
807.0,0.0004645511063024746
808.0,0.0005308151101720208
809.0,0.0006051233100330479
810.0,0.0007000099112128481
811.0,0.0008073094971655183
812.0,0.0009502576237627737
813.0,0.0011211155708102786
814.0,0.0013424982449411049
815.0,0.0016146092966866827
816.0,0.001964097852731267
817.0,0.002412890286958809
818.0,0.0029205183294808835
819.0,0.003524953106764811
820.0,0.0041009398443368535
821.0,0.004616161142387957
822.0,0.005002258305868153
823.0,0.005022618510188965
824.0,0.0049448337048270995
825.0,0.0044863387774235755
826.0,0.0040168806630780755
827.0,0.00348527519489122
828.0,0.0029675325093081275
829.0,0.0025818329492464376
830.0,0.0022026841479457424
831.0,0.001972772395605745
832.0,0.0017428654920879241
833.0,0.0016205151620981497
834.0,0.001499260665920355
835.0,0.0014445659517648974
836.0,0.0013942012358134136
837.0,0.0013964947287030884
838.0,0.0014053001897763428
839.0,0.0014559558350584407
840.0,0.001514534455777597
841.0,0.0016276574771647266
842.0,0.001754939059308411
843.0,0.0019443146582495056
844.0,0.0021547244477940018
845.0,0.0024667946430994314
846.0,0.0028220193557792904
847.0,0.0033288521914643533
848.0,0.003914478387524077
849.0,0.00465361344488235
850.0,0.0054887988207428795
851.0,0.0063731270093663125
852.0,0.0072941074448249505
853.0,0.007992914848137926
854.0,0.00849639714769875
855.0,0.008617801957364028
856.0,0.008346156392547434
857.0,0.007816136489212424
858.0,0.006975326479626688
859.0,0.006098804894708067
860.0,0.005172316197256468
861.0,0.004332427463884344
862.0,0.0036338043158140898
863.0,0.0030189445708498222
864.0,0.0025631358909323026
865.0,0.0021547147501496484
866.0,0.001851323946540874
867.0,0.0015830483131372259
868.0,0.0014059208390149866
869.0,0.0012441350382604657
870.0,0.0011290918832912828
871.0,0.0010259186450111565
872.0,0.0009657787035510378
873.0,0.0009158649280620059
874.0,0.0009106718395105436
875.0,0.0009160685785934358
876.0,0.000977871666060232
877.0,0.0010431271149169826
878.0,0.00113130294620395
879.0,0.0012154639527284428
880.0,0.0012653825770396513
881.0,0.0013039985968565009
882.0,0.0012126079964662473
883.0,0.0011174644077110712
884.0,0.0009589370154594288
885.0,0.0008008848077811228
886.0,0.0006566808362400497
887.0,0.0005131411533372121
888.0,0.00042881528685870496
889.0,0.0003444991180245516
890.0,0.0002934895087235398
891.0,0.00024279507286402674
892.0,0.0002083878306967283
893.0,0.00017447031956929702
894.0,0.00014743328711089003
895.0,0.00012074052102704311
896.0,0.00010751778295063066
897.0,9.524056519871414e-05
898.0,8.539260735742566e-05
899.0,7.62428799096111e-05
900.0,7.377482942156785e-05
901.0,7.201955579352923e-05
902.0,6.35777563835424e-05
903.0,5.402557669504495e-05
904.0,4.669415756356874e-05
905.0,3.985731829413656e-05
906.0,3.9168785545016434e-05
907.0,3.92997037437928e-05
908.0,3.502789140594191e-05
909.0,3.0014209275024977e-05
910.0,3.3170792512188344e-05
911.0,3.788384766813734e-05
912.0,4.05894904428488e-05
913.0,4.2926622732115686e-05
