wavelength,intensity
206.0,0.0
207.0,3.636616632676693e-07
208.0,1.0618920567415944e-05
209.0,3.233194627558425e-05
210.0,5.5412339837639004e-05
211.0,4.365879488082792e-05
212.0,3.278288673803616e-05
213.0,5.1019306945365555e-05
214.0,8.606174481783816e-05
215.0,0.000117918506520086
216.0,0.00013952970696253937
217.0,0.0001613106161811843
218.0,0.0001849825660488211
219.0,0.00020897938700231039
220.0,0.0002279431305361751
221.0,0.00024207744718184518
222.0,0.0002534721792975655
223.0,0.0002438084766989993
224.0,0.00023429508758791707
225.0,0.00021684902539542277
226.0,0.00019669247160604007
227.0,0.0001826357361152004
228.0,0.0001784705978652414
229.0,0.00017413090201691387
230.0,0.00016765287558857244
231.0,0.00016145608084649137
232.0,0.0001537706976961013
233.0,0.00014597864045781938
234.0,0.0001396169857617236
235.0,0.0001385356984162744
236.0,0.00013882177892471161
237.0,0.000136620413656398
238.0,0.00013429782783366183
239.0,0.00012881865877376227
240.0,0.00012304371156107168
241.0,0.00011658023159926097
242.0,0.00010663529731443445
243.0,9.47459853366701e-05
244.0,8.100927210950601e-05
245.0,6.690404839689735e-05
246.0,5.650817364961891e-05
247.0,5.063140117121337e-05
248.0,4.4395815851717074e-05
249.0,3.442663745600602e-05
250.0,2.4462307882471888e-05
251.0,2.2003955038782445e-05
252.0,2.2333674946811797e-05
253.0,1.9623183349923435e-05
254.0,1.174869613463417e-05
255.0,3.9808830072367535e-06
256.0,4.334847026150618e-06
257.0,4.693659867241385e-06
258.0,3.6996513209764227e-06
259.0,2.002563559060632e-06
260.0,9.358226801421357e-07
261.0,1.3140308099405118e-06
262.0,1.7019365840926922e-06
263.0,1.5516230966087224e-07
264.0,1.4934372304858953e-06
265.0,3.122641481925054e-06
266.0,4.742148089010408e-06
267.0,6.351957051741957e-06
268.0,7.952068370119702e-06
269.0,9.547330866320546e-06
270.0,7.442942041544965e-06
271.0,4.892461576494377e-06
272.0,4.582136957172633e-06
273.0,6.148306520312062e-06
274.0,7.307175020591701e-06
275.0,6.802897514193867e-06
276.0,6.29377118561913e-06
277.0,4.0293712290057755e-06
278.0,1.4546466530706772e-06
279.0,2.167423513075309e-06
280.0,6.807746336370769e-06
281.0,1.0793478165784425e-05
282.0,1.1302604494359162e-05
283.0,1.1811730822933899e-05
284.0,2.0762656561495467e-05
285.0,3.161916941557962e-05
286.0,4.051675811019526e-05
287.0,4.723237682520489e-05
288.0,5.505837581872513e-05
289.0,7.005578281188382e-05
290.0,8.50434921606887e-05
291.0,0.0001082548039215198
292.0,0.0001335995974401879
293.0,0.0001684141406703461
294.0,0.00021452159075050967
295.0,0.00026411534397586595
296.0,0.0003393593665170352
297.0,0.0004147003655017425
298.0,0.0005062121864464188
299.0,0.0006025825272123512
300.0,0.0006818850139155876
301.0,0.0007405654599004586
302.0,0.0007872402221753198
303.0,0.0007419134324656375
304.0,0.000696596340400309
305.0,0.0006105879326264167
306.0,0.0005132429786029271
307.0,0.0004252659490252125
308.0,0.0003487030468519259
309.0,0.00027693078098941864
310.0,0.00023989062838006227
311.0,0.00020286017341505976
312.0,0.0001806962072444395
313.0,0.00016242584528187182
314.0,0.0001490867354732137
315.0,0.00014140135232282362
316.0,0.00013521425522509636
317.0,0.00013803626973205347
318.0,0.00014087283070554128
319.0,0.0001437239381455598
320.0,0.00014658474322993217
321.0,0.00015353795423160997
322.0,0.00016475327992678492
323.0,0.000174223029638275
324.0,0.00017499884118657937
325.0,0.00017576980391270682
326.0,0.00016946148626055698
327.0,0.00016185853308717425
328.0,0.0001509535320113211
329.0,0.0001370616564744961
330.0,0.00012446441645890406
331.0,0.00011682267270810609
332.0,0.00010917123131295433
333.0,0.00010894818549281683
334.0,0.00010964641588629075
335.0,0.00011273026679080058
336.0,0.00011759848425641045
337.0,0.00012030897585329882
338.0,0.00011678873095286777
339.0,0.00011325878840808294
340.0,0.00010577220696694585
341.0,9.802863795043294e-05
342.0,8.895649165744881e-05
343.0,7.908913852745272e-05
344.0,7.186439348386836e-05
345.0,7.034186332032104e-05
346.0,6.876114729065091e-05
347.0,6.300074654449103e-05
348.0,5.721610168744664e-05
349.0,5.5800245611791174e-05
350.0,5.6289976651658305e-05
351.0,5.677485886934853e-05
352.0,5.7259741087038756e-05
353.0,5.7919180903097466e-05
354.0,6.0508451945563267e-05
355.0,6.310257181020598e-05
356.0,6.406263860123263e-05
357.0,6.455236964109975e-05
358.0,6.405294095687882e-05
359.0,6.243828317197037e-05
360.0,6.046966136814805e-05
361.0,5.675061475846402e-05
362.0,5.303156814877998e-05
363.0,4.743117853445788e-05
364.0,4.156410370040615e-05
365.0,3.5697028866354416e-05
366.0,2.9820256387948885e-05
367.0,2.6106058600441757e-05
368.0,2.854986497760049e-05
369.0,3.101791546564374e-05
370.0,2.9442048258150507e-05
371.0,2.7628588763989063e-05
372.0,2.7114613613237422e-05
373.0,2.7197043590244763e-05
374.0,2.6377592642348284e-05
375.0,2.4127739152265634e-05
376.0,2.160635162027646e-05
377.0,1.7024214663103826e-05
378.0,1.2592391193415163e-05
379.0,1.1642022046742319e-05
380.0,1.1642022046742319e-05
381.0,1.0492851190816486e-05
382.0,8.189660656787914e-06
383.0,5.9204118779976565e-06
384.0,3.689953676622618e-06
385.0,1.6146577849084519e-06
386.0,2.7638286408342867e-07
387.0,1.958924159468512e-06
388.0,9.843109019111583e-07
389.0,1.6146577849084519e-06
390.0,2.1189352913062866e-06
391.0,1.6389018957929631e-06
392.0,5.028228597447641e-06
393.0,3.054757971448422e-07
394.0,4.412428180981054e-06
395.0,4.315451737443009e-06
396.0,2.686247486003851e-06
397.0,6.104667120719942e-06
398.0,1.5133174014111945e-05
399.0,2.2959173007632192e-05
400.0,2.563087402710533e-05
401.0,2.8321970335286085e-05
402.0,2.9102630705767347e-05
403.0,2.9737826410941544e-05
404.0,3.724865196296314e-05
405.0,4.8764604633106e-05
406.0,5.937382755616814e-05
407.0,6.85429502926903e-05
408.0,7.782359593928123e-05
409.0,8.723031096247161e-05
410.0,9.662247951913128e-05
411.0,0.00011612444231463217
412.0,0.00013827386201872168
413.0,0.00015711153617598694
414.0,0.00017284596414003477
415.0,0.0001859959698837937
416.0,0.00019104844259212585
417.0,0.0001960863688339273
418.0,0.0001866699561663831
419.0,0.000176754114814618
420.0,0.00016681402935196836
421.0,0.00015686424624496492
422.0,0.00014960555944614225
423.0,0.00014597379163564246
424.0,0.00014392758867698972
425.0,0.00015086140438995993
426.0,0.00015774673188116115
427.0,0.00017404847203990654
428.0,0.000191586661853762
429.0,0.0002117626109318523
430.0,0.00023358231072791245
431.0,0.00025764701519187836
432.0,0.0002859011020166878
433.0,0.00031397093359877495
434.0,0.00034008184102139364
435.0,0.0003661878996218354
436.0,0.0003694996451686596
437.0,0.0003677686156515055
438.0,0.0003481599787681128
439.0,0.0003142715605737429
440.0,0.0002784775552638505
441.0,0.00023812080828549296
442.0,0.00019834107114618683
443.0,0.00017513945702970953
444.0,0.00015194754055758604
445.0,0.00013374021328331807
446.0,0.00011698753266212076
447.0,0.00010578675343347656
448.0,9.979360922282536e-05
449.0,9.269008473366355e-05
450.0,8.238148878556935e-05
451.0,7.208259048182895e-05
452.0,7.249474036686565e-05
453.0,7.289719260754854e-05
454.0,6.846536913785988e-05
455.0,6.240434141673205e-05
456.0,5.846224898691052e-05
457.0,5.6702126536695e-05
458.0,5.4937155264302574e-05
459.0,5.317703281408706e-05
460.0,5.1412061541694634e-05
461.0,4.964709026930222e-05
462.0,4.788211899690979e-05
463.0,4.7712410220718214e-05
464.0,4.810031599487039e-05
465.0,4.6364437655539385e-05
466.0,4.243204287007165e-05
467.0,4.05991880872026e-05
468.0,4.5292847954443985e-05
469.0,4.999135664386228e-05
470.0,4.822638537146985e-05
471.0,4.644201881036982e-05
472.0,4.6277158856355144e-05
473.0,4.664566934179971e-05
474.0,4.592319483744128e-05
475.0,4.412913063198745e-05
476.0,4.2907227443408075e-05
477.0,4.3270889106675745e-05
478.0,4.368303899171244e-05
479.0,4.621412416805542e-05
480.0,4.874036052222149e-05
481.0,4.957435793664868e-05
482.0,4.9938019599916344e-05
483.0,5.030168126318402e-05
484.0,5.0665342926451684e-05
485.0,5.234788422183677e-05
486.0,5.704154408907815e-05
487.0,6.129880996039833e-05
488.0,5.94853504662369e-05
489.0,5.767189097207545e-05
490.0,5.765249568336784e-05
491.0,5.7991913235751006e-05
492.0,5.4442575402258546e-05
493.0,4.825547830453127e-05
494.0,4.440551349607087e-05
495.0,4.46625010714467e-05
496.0,4.4381269385186366e-05
497.0,4.0347049334003684e-05
498.0,3.630798046064411e-05
499.0,3.22107257211617e-05
500.0,2.7919518094603197e-05
501.0,2.5301154119075978e-05
502.0,2.3434357580968612e-05
503.0,2.060264542965769e-05
504.0,1.65393324454136e-05
505.0,1.2946355212329027e-05
506.0,1.1094105140752364e-05
507.0,9.2370062469988e-06
508.0,7.375058531068333e-06
509.0,5.5082619929609636e-06
510.0,1.9831682703530232e-06
511.0,2.075295891714166e-06
512.0,2.637759264234828e-06
513.0,1.6970877619157904e-07
514.0,9.358226801421357e-07
515.0,9.697644353804515e-07
516.0,2.686247486003851e-06
517.0,2.424411088451129e-06
518.0,2.167423513075309e-06
519.0,1.920133582053294e-06
520.0,1.6825412953850832e-06
521.0,1.449797830893775e-06
522.0,1.2219031885793689e-06
523.0,1.0037061906187673e-06
524.0,7.952068370119702e-07
525.0,5.867074834051731e-07
526.0,3.879057741521806e-07
527.0,1.9880170925299255e-07
528.0,1.4546466530706772e-08
529.0,1.6485995401467675e-07
530.0,2.0655982473603616e-06
531.0,4.441521114042468e-06
532.0,1.0565583523470018e-05
533.0,1.950196279550088e-05
534.0,2.7652832874873577e-05
535.0,3.4416939811652224e-05
536.0,4.215566000598823e-05
537.0,5.551901392553084e-05
538.0,6.888236784507346e-05
539.0,8.63478253262754e-05
540.0,0.00010408966567156076
541.0,0.00011391822822414164
542.0,0.00012082779982622736
543.0,0.00011865067866879824
544.0,0.0001080317581013823
545.0,9.461021831571685e-05
546.0,7.505491847627003e-05
547.0,5.6396650739550156e-05
548.0,4.559832375158883e-05
549.0,3.47999967636275e-05
550.0,2.996087223107905e-05
551.0,2.5790885158943106e-05
552.0,2.3293741737838446e-05
553.0,2.1635444553337873e-05
554.0,2.0006240301898715e-05
555.0,1.8396431339167165e-05
556.0,1.798428145413047e-05
557.0,2.053961074135796e-05
558.0,2.3080393562054744e-05
559.0,2.565026931581294e-05
560.0,2.8341365623993692e-05
561.0,3.319503662307286e-05
562.0,3.824750933140501e-05
563.0,3.992035298243629e-05
564.0,4.012885233604308e-05
565.0,4.27472163115703e-05
566.0,4.7712410220718214e-05
567.0,5.475290002158029e-05
568.0,6.639977089049952e-05
569.0,7.749872485342878e-05
570.0,8.639146472586752e-05
571.0,9.527450695395246e-05
572.0,0.00011030585570234945
573.0,0.0001258705748902057
574.0,0.00014631320918802562
575.0,0.00016856930298000697
576.0,0.0001920666952492753
577.0,0.00021654354959827792
578.0,0.0002455782967935686
579.0,0.00028323909864156845
580.0,0.00032106960926575986
581.0,0.0003590358869109046
582.0,0.00039686639753509594
583.0,0.00040863448895843776
584.0,0.00041979162878748983
585.0,0.0004134493693801017
586.0,0.0004023358689506417
587.0,0.0003857722923943436
588.0,0.0003656981685819683
589.0,0.00034751023659640787
590.0,0.00033190187800895954
591.0,0.00032005620543078733
592.0,0.0003199834730981338
593.0,0.0003206477617363694
594.0,0.00033386080216842804
595.0,0.00034720960962143993
596.0,0.0003782372227314375
597.0,0.0004115825728419943
598.0,0.0004542182662434959
599.0,0.0005008348426522343
600.0,0.0005474417214166187
601.0,0.0005940486001810031
602.0,0.0006360345514107998
603.0,0.0006692974715443493
604.0,0.0006972169896389525
605.0,0.0006992583437754283
606.0,0.0007012948490897273
607.0,0.0006677361508033869
608.0,0.0006340610807848005
609.0,0.0005856552889927854
610.0,0.0005340977627857837
611.0,0.00048106619463700366
612.0,0.0004272442684733886
613.0,0.00037659347201346764
614.0,0.00032935139754390895
615.0,0.0002869726917177832
616.0,0.0002553389758356729
617.0,0.00022432106037002913
618.0,0.00019705128444713084
619.0,0.00016957300917062575
620.0,0.00015077412559077568
621.0,0.00013235345014072402
622.0,0.000119407094928395
623.0,0.00010762930586069941
624.0,9.571574977205056e-05
625.0,8.381189132775551e-05
626.0,7.514704609763118e-05
627.0,6.997820165705339e-05
628.0,6.411112682300164e-05
629.0,5.679910298023305e-05
630.0,5.056351766073674e-05
631.0,4.995741488862396e-05
632.0,4.933191682780356e-05
633.0,4.198110240761974e-05
634.0,3.461574152090522e-05
635.0,2.9136572461005666e-05
636.0,2.403561153090449e-05
637.0,2.0466878408704427e-05
638.0,1.769820094569324e-05
639.0,1.7329690460248668e-05
640.0,1.9186789354002232e-05
641.0,1.855159364882804e-05
642.0,1.3678527361041268e-05
643.0,9.760679042104243e-06
644.0,9.377622090128966e-06
645.0,8.994565138153687e-06
646.0,8.601810541824605e-06
647.0,8.209055945495522e-06
648.0,5.760400746159882e-06
649.0,3.1032461932174447e-06
650.0,2.1383305800138955e-06
651.0,1.7213318728003012e-06
652.0,2.6668521972962417e-06
653.0,4.4900093358114905e-06
654.0,5.275518528469656e-06
655.0,4.834275710371551e-06
656.0,4.388184070096543e-06
657.0,3.937243607644633e-06
658.0,3.108095015394347e-06
659.0,3.733593076214738e-07
660.0,2.337132289266888e-06
661.0,2.851107440018527e-06
662.0,3.3796290573008734e-06
663.0,1.949226515114708e-06
664.0,2.4728993102201513e-07
665.0,1.939528870760903e-07
666.0,7.467186152429476e-07
667.0,2.6280616198810236e-06
668.0,5.435529660307431e-06
669.0,5.193088551462317e-06
670.0,1.2122055442255645e-06
671.0,6.59439816058707e-07
672.0,2.1722723352522113e-06
673.0,4.625776356764753e-06
674.0,5.207635017993025e-06
675.0,5.639180191737325e-06
676.0,1.7019365840926922e-06
677.0,2.235307023551941e-06
678.0,2.089842358244873e-06
679.0,1.4788907639551885e-06
680.0,8.630903474886018e-07
681.0,2.4244110884511287e-07
682.0,3.8305695197527834e-07
683.0,1.0134038349725717e-06
684.0,5.188239729285415e-07
685.0,1.1152291006875193e-06
686.0,1.0861361676261057e-06
687.0,1.8377036050459556e-06
688.0,3.6996513209764227e-06
689.0,2.0801447138910686e-06
690.0,7.079280378277296e-07
691.0,1.3722166760633387e-06
692.0,2.0462029586527527e-06
693.0,4.945798620440303e-07
694.0,1.1055314563337147e-06
695.0,7.661139039505567e-07
696.0,7.758115483043612e-08
697.0,6.061027721127822e-07
698.0,1.299484343409805e-06
699.0,6.254980608203913e-07
700.0,9.60066791026647e-07
701.0,3.733593076214738e-07
702.0,2.6183639755272192e-06
703.0,3.990580651590558e-06
704.0,2.414713444097324e-06
705.0,8.388462366040905e-07
706.0,7.321721487122408e-07
707.0,2.0462029586527527e-06
708.0,1.3285772764712186e-06
709.0,6.061027721127822e-07
710.0,2.1577258687215047e-06
711.0,3.7238954318609337e-06
712.0,5.290064995000363e-06
713.0,6.85138573596289e-06
714.0,4.931252153909596e-06
715.0,1.9104359376994893e-06
716.0,3.636616632676693e-07
717.0,3.733593076214738e-07
718.0,1.1055314563337147e-06
719.0,1.8425524272228578e-06
720.0,1.6243554292622563e-06
721.0,6.78835104766316e-08
722.0,7.855091926581657e-07
723.0,4.363939959212032e-08
724.0,2.521387531989174e-07
725.0,1.3043331655867074e-06
726.0,2.6668521972962417e-06
727.0,1.9249824042301964e-06
728.0,1.1831126111641508e-06
729.0,4.460916402750077e-07
730.0,2.957781527910377e-07
731.0,9.60066791026647e-07
732.0,2.526236354166076e-06
733.0,2.34198111144379e-06
734.0,1.6049601405546473e-06
735.0,6.40044527351098e-07
736.0,3.6754072100919112e-06
737.0,4.169987072135942e-06
738.0,2.5941198646427078e-06
739.0,1.018252657149474e-06
740.0,5.576145503437597e-07
741.0,1.3382749208250233e-06
742.0,6.109515942896844e-07
743.0,1.1152291006875192e-07
744.0,8.388462366040905e-07
745.0,1.5710183853163314e-06
746.0,2.3128881783823765e-06
747.0,2.8365609734878205e-06
748.0,1.0570432345646922e-06
749.0,4.945798620440303e-06
750.0,4.417277003157957e-06
751.0,3.636616632676693e-06
752.0,2.8608050843723316e-06
753.0,2.084993536067971e-06
754.0,3.0644556158022267e-06
755.0,4.59668342370334e-06
756.0,4.548195201934317e-06
757.0,3.636616632676693e-06
758.0,6.671979315417505e-06
759.0,1.2660274703891794e-05
760.0,1.4231293089208126e-05
761.0,1.1074709852044755e-05
762.0,8.858798117200424e-06
763.0,8.044195991480845e-06
764.0,7.922975437058288e-06
765.0,9.416412667544184e-06
766.0,1.1380185649189599e-05
767.0,1.50361975705739e-05
768.0,1.7921246765830744e-05
769.0,1.6718738865958984e-05
770.0,1.5584114476563854e-05
771.0,1.6786622376435617e-05
772.0,1.8120048475083735e-05
773.0,2.3914390976481935e-05
774.0,2.9883291076248613e-05
775.0,2.96456987895804e-05
776.0,2.8326819157462988e-05
777.0,3.255499209572176e-05
778.0,3.854328748419604e-05
779.0,4.136045316897625e-05
780.0,4.264054222367845e-05
781.0,4.5224964443967355e-05
782.0,4.8648232900860346e-05
783.0,5.2056954891222636e-05
784.0,5.574690856784525e-05
785.0,6.0799381276177404e-05
786.0,6.708830363961964e-05
787.0,7.15201271093083e-05
788.0,7.310569196115534e-05
789.0,7.615075228824996e-05
790.0,8.235239585250795e-05
791.0,8.909710750057899e-05
792.0,9.766012746498836e-05
793.0,0.0001063346703394665
794.0,0.00011502375968047536
795.0,0.00012378073253196083
796.0,0.00013452572247597624
797.0,0.00014552285117319056
798.0,0.00016119909327111555
799.0,0.0001768413936138022
800.0,0.00019470930333568705
801.0,0.00021278571241117866
802.0,0.00023511453853581354
803.0,0.0002579767350999077
804.0,0.00029430895967143635
805.0,0.00033355047754910633
806.0,0.0003798809734494074
807.0,0.00042857284574985985
808.0,0.0004902595614844103
809.0,0.000557789107942128
810.0,0.0006413634069832154
811.0,0.0007346111062672226
812.0,0.0008596525325651781
813.0,0.001009573265452819
814.0,0.0012123946482904635
815.0,0.001468296087498657
816.0,0.001788172886508899
817.0,0.002190145093796273
818.0,0.0026322510022418672
819.0,0.0031403930199146927
820.0,0.0036012735678292527
821.0,0.003961250126242476
822.0,0.004212370626784244
823.0,0.004155266048006866
824.0,0.004030437969884695
825.0,0.003642973438550612
826.0,0.0032501897492884673
827.0,0.002827319118418645
828.0,0.0024160808119512104
829.0,0.0021156526386925238
830.0,0.0018201848105208077
831.0,0.0016377721202257447
832.0,0.0014553594299306818
833.0,0.0013571222926266422
834.0,0.001259743396847914
835.0,0.001220055787329969
836.0,0.0011841211661769466
837.0,0.001188208723272075
838.0,0.0011972469278098208
839.0,0.0012421567188122898
840.0,0.0012938548608624214
841.0,0.0013888141943748753
842.0,0.0014950034000490347
843.0,0.001663257529587543
844.0,0.001852477966218977
845.0,0.0021316779959871857
846.0,0.002449135232731153
847.0,0.002876044932474336
848.0,0.003359845862819112
849.0,0.00395625099057809
850.0,0.004623148295144873
851.0,0.0052888721847448444
852.0,0.005953718437530797
853.0,0.00641396863856236
854.0,0.00669421601392078
855.0,0.006703651821877031
856.0,0.006434619772213787
857.0,0.005980677888834375
858.0,0.00530434477631134
859.0,0.0046240453272476
860.0,0.00393820367443566
861.0,0.0033163955672918907
862.0,0.0027990747292381893
863.0,0.0023400561290395604
864.0,0.0019917409879617863
865.0,0.0016834237810212796
866.0,0.001463738194652369
867.0,0.0012652371123743444
868.0,0.001121745917693276
869.0,0.0009924181325909388
870.0,0.0009062400160408551
871.0,0.0008283097460136819
872.0,0.0007803209529288804
873.0,0.0007416612937124386
874.0,0.0007438481125142214
875.0,0.0007532208857821736
876.0,0.0008008654124924151
877.0,0.0008504106774960023
878.0,0.0009124562060716438
879.0,0.0009704966075291637
880.0,0.0009942752314846925
881.0,0.0010104024140450694
882.0,0.00093838285825154
883.0,0.000863279451553501
884.0,0.0007361142411420623
885.0,0.0006096715052349822
886.0,0.0005040399141111665
887.0,0.0003988883563828642
888.0,0.0003363724920560634
889.0,0.0002738614765514395
890.0,0.00023277255742436978
891.0,0.00019188244000655305
892.0,0.0001672940627474817
893.0,0.00014319541652827746
894.0,0.00012596755133374374
895.0,0.00010908880133594699
896.0,0.00010119491883195012
897.0,9.393138321095053e-05
898.0,8.232815174162342e-05
899.0,7.058430442916616e-05
900.0,6.543485527729596e-05
901.0,6.0973938874545885e-05
902.0,5.436499424742811e-05
903.0,4.7484515578403804e-05
904.0,4.472068693756952e-05
905.0,4.2407798759187145e-05
906.0,4.228172938258769e-05
907.0,4.262114693497084e-05
908.0,3.883906563698708e-05
909.0,3.43539051233525e-05
910.0,3.7893545312491144e-05
911.0,4.2800553355516224e-05
912.0,4.7712410220718214e-05
