wavelength,intensity
206.0,0.0
207.0,1.5593812120917662e-05
208.0,4.1728963654420825e-05
209.0,6.905207662126504e-05
210.0,9.915841351765117e-05
211.0,8.734668269471726e-05
212.0,7.701869145791546e-05
213.0,0.00010667408789184966
214.0,0.00015947776139831524
215.0,0.00020195829249015595
216.0,0.0002130814905639697
217.0,0.0002244907691462207
218.0,0.000250470758370063
219.0,0.00027895273983718686
220.0,0.00029630182558614313
221.0,0.00030293986314632233
222.0,0.0003069595367309743
223.0,0.0002914287592983564
224.0,0.00027572342426736995
225.0,0.0002505434907027165
226.0,0.0002225463914532829
227.0,0.0001958681718359667
228.0,0.00017124100399948015
229.0,0.00014683203316095416
230.0,0.00013346867924141155
231.0,0.00012225335354623662
232.0,0.00011369518240400413
233.0,0.00010254289139712894
234.0,9.671945596266932e-05
235.0,9.595819088089568e-05
236.0,9.401866201013477e-05
237.0,9.057599826453417e-05
238.0,8.793823900029934e-05
239.0,8.250270933999191e-05
240.0,7.809997880336465e-05
241.0,7.284870438577951e-05
242.0,6.938664535147131e-05
243.0,6.491118248219052e-05
244.0,5.503413170784062e-05
245.0,4.348423728245945e-05
246.0,3.5561261845401156e-05
247.0,3.208950516673914e-05
248.0,2.8593504377192612e-05
249.0,2.659094081813198e-05
250.0,2.450594728206401e-05
251.0,1.9424381640670444e-05
252.0,1.323243572076626e-05
253.0,7.801754882635732e-06
254.0,3.665709565738107e-06
255.0,4.412428180981054e-07
256.0,2.5165387098122717e-06
257.0,4.586985779349535e-06
258.0,2.59896868681961e-06
259.0,1.5128325191935043e-06
260.0,2.526236354166076e-06
261.0,3.597826055261475e-06
262.0,9.678249065096905e-06
263.0,9.852806663465388e-06
264.0,9.663702598566199e-06
265.0,9.435807956251792e-06
266.0,9.178820380875973e-06
267.0,9.886748418703703e-06
268.0,1.3697922649748879e-05
269.0,1.748000394773264e-05
270.0,1.387732907029426e-05
271.0,9.372773267952063e-06
272.0,8.223602412026229e-06
273.0,9.891597240880606e-06
274.0,1.0744989944015404e-05
275.0,8.272090633795251e-06
276.0,5.7991913235751e-06
277.0,1.5710183853163314e-06
278.0,2.962630350087279e-06
279.0,5.406436727246017e-06
280.0,5.789493679221295e-06
281.0,7.15201271093083e-06
282.0,1.3727015582810291e-05
283.0,2.0287471988159047e-05
284.0,2.1771211574291136e-05
285.0,2.208638501578978e-05
286.0,2.237731434640392e-05
287.0,2.2648848388310447e-05
288.0,2.344890404749932e-05
289.0,2.7812844006711346e-05
290.0,3.214284221068506e-05
291.0,4.138954610203767e-05
292.0,5.187754847067725e-05
293.0,6.613308567076989e-05
294.0,8.487863220667401e-05
295.0,0.0001045939431779586
296.0,0.00013162127799201177
297.0,0.00015864861280606496
298.0,0.0001905587115522587
299.0,0.000223831329330162
300.0,0.00025245877546259296
301.0,0.00027536946024845607
302.0,0.00029350405519007055
303.0,0.0002748554850977045
304.0,0.0002562166126496922
305.0,0.00022781221233739876
306.0,0.00019669247160604007
307.0,0.00017121191106641873
308.0,0.00015258273626276024
309.0,0.0001357330791980249
310.0,0.00013169401032466532
311.0,0.00012765494145130574
312.0,0.00013353656275188816
313.0,0.00014200260627275952
314.0,0.00014667687085129328
315.0,0.00014591075694734271
316.0,0.0001460756169013574
317.0,0.0001516469135826181
318.0,0.0001572279079082326
319.0,0.00017299627762751873
320.0,0.00019107753552518724
321.0,0.00021527800701010645
322.0,0.00024584983083547515
323.0,0.0002767416769245194
324.0,0.0003093645525307178
325.0,0.0003419583352038548
326.0,0.0003427002049969209
327.0,0.0003376137905333504
328.0,0.0003258941873317776
329.0,0.0003081814399195537
330.0,0.0002917293862733243
331.0,0.00028020373595882765
332.0,0.00026863929506691577
333.0,0.0002719122500363248
334.0,0.0002770035133220722
335.0,0.00028445130418579403
336.0,0.00029365921749973143
337.0,0.00029906565422697744
338.0,0.00029353314812313193
339.0,0.00028794245615316365
340.0,0.0002605805526089042
341.0,0.00023184158356640453
342.0,0.00020436330828989944
343.0,0.00017760750751775277
344.0,0.00015411981289283825
345.0,0.0001377356427570855
346.0,0.00012131268204391757
347.0,0.00010693592428940237
348.0,9.252522477964889e-05
349.0,8.393311188217807e-05
350.0,7.784784005016574e-05
351.0,7.17431729294458e-05
352.0,6.559001758695683e-05
353.0,6.041632432420213e-05
354.0,6.678767666465169e-05
355.0,7.313478489421675e-05
356.0,6.966787703773163e-05
357.0,6.33595593855818e-05
358.0,6.299104890013723e-05
359.0,6.926542479704874e-05
360.0,7.546221953912984e-05
361.0,8.157173548202668e-05
362.0,8.756972851485477e-05
363.0,0.00010064215310378326
364.0,0.00011473283034986122
365.0,0.00013345898159705774
366.0,0.00015602540000836084
367.0,0.00017945005994497566
368.0,0.00020450877295520651
369.0,0.0002291844290134621
370.0,0.00023310712615457605
371.0,0.0002362976511469777
372.0,0.00022118387242157336
373.0,0.0001969834009366542
374.0,0.00017281687120697335
375.0,0.0001486163997220542
376.0,0.00012480383401128721
377.0,0.00010853118678560323
378.0,9.252522477964889e-05
379.0,8.179963012434109e-05
380.0,7.254807741081158e-05
381.0,6.111455471767605e-05
382.0,4.7474817934050005e-05
383.0,3.6114027573568015e-05
384.0,3.341808244321036e-05
385.0,3.1027613109997545e-05
386.0,2.8855340774745333e-05
387.0,2.672185901690834e-05
388.0,2.7221287701129273e-05
389.0,2.9359618281143166e-05
390.0,2.9466292369035017e-05
391.0,2.535933998519881e-05
392.0,2.1538468109799827e-05
393.0,2.3812565710766983e-05
394.0,2.6086663311734143e-05
395.0,2.8365609734878205e-05
396.0,3.065425380237607e-05
397.0,3.3970848171377216e-05
398.0,3.843661339630419e-05
399.0,4.29557156651771e-05
400.0,4.753785262234973e-05
401.0,5.217817544564519e-05
402.0,7.232503159067407e-05
403.0,9.411563845367281e-05
404.0,0.00011467464448373838
405.0,0.0001344141995659075
406.0,0.0001488539920087224
407.0,0.00015353310540943308
408.0,0.00015682060684537281
409.0,0.00014036370437696654
410.0,0.00012400377835209835
411.0,0.00010942337006615324
412.0,9.51678328660606e-05
413.0,8.848130708411239e-05
414.0,8.884981756955698e-05
415.0,8.970321027269176e-05
416.0,9.217126076073501e-05
417.0,9.463931124877827e-05
418.0,9.092511346127113e-05
419.0,8.700241632015721e-05
420.0,8.456345876517538e-05
421.0,8.277909220407534e-05
422.0,7.918611497099076e-05
423.0,7.312508724986294e-05
424.0,6.836839269432182e-05
425.0,7.084614082671889e-05
426.0,7.331904013693904e-05
427.0,7.011881750018355e-05
428.0,6.617187624818511e-05
429.0,6.749560470247942e-05
430.0,7.210198577053656e-05
431.0,7.446336217068797e-05
432.0,7.264990267652653e-05
433.0,7.06521879396428e-05
434.0,6.669070022111365e-05
435.0,6.27340613247614e-05
436.0,6.0522998412093974e-05
437.0,5.869984127357873e-05
438.0,5.806464556840453e-05
439.0,5.8384667832080085e-05
440.0,5.806949439058144e-05
441.0,5.6241488429889286e-05
442.0,5.448621480185067e-05
443.0,5.4806237065526216e-05
444.0,5.512141050702487e-05
445.0,5.378313558619984e-05
446.0,5.195997844768459e-05
447.0,5.1247201587679965e-05
448.0,5.157207267353241e-05
449.0,5.134902685339491e-05
450.0,4.953071853705656e-05
451.0,4.7712410220718214e-05
452.0,4.5894101904379864e-05
453.0,4.407579358804152e-05
454.0,4.548195201934318e-05
455.0,4.796939779609403e-05
456.0,4.620927534587851e-05
457.0,4.009491058080477e-05
458.0,3.606069052962209e-05
459.0,3.855783395072675e-05
460.0,4.1059826194008316e-05
461.0,4.143318550162979e-05
462.0,4.1787149520543656e-05
463.0,4.054585104325668e-05
464.0,3.874693801562594e-05
465.0,3.80099170447368e-05
466.0,3.8373578708004464e-05
467.0,3.821841639834359e-05
468.0,3.642920101506666e-05
469.0,3.4639985631789725e-05
470.0,3.9314250210323506e-05
471.0,4.401275889974179e-05
472.0,4.385274776790402e-05
473.0,4.2082927673334696e-05
474.0,3.922212258896236e-05
475.0,3.530427427002534e-05
476.0,3.366537237423237e-05
477.0,3.840267164106588e-05
478.0,4.29508668430002e-05
479.0,3.904756499059388e-05
480.0,3.514911196036446e-05
481.0,3.4639985631789725e-05
482.0,3.508122844988784e-05
483.0,3.553216891233974e-05
484.0,3.5987958196968554e-05
485.0,3.842691575195039e-05
486.0,4.5399522042335836e-05
487.0,5.150903798523268e-05
488.0,4.548680084152008e-05
489.0,3.9469412519984376e-05
490.0,3.8863309747871595e-05
491.0,3.936758725426943e-05
492.0,3.857722923943436e-05
493.0,3.691408323275689e-05
494.0,3.603644641873758e-05
495.0,3.6545572747312315e-05
496.0,3.621100401710606e-05
497.0,3.0203313339924162e-05
498.0,2.4200471484919166e-05
499.0,2.014200732285198e-05
500.0,1.630658898092229e-05
501.0,1.3925817292063282e-05
502.0,1.226267128538581e-05
503.0,9.649156132035493e-06
504.0,5.8088889679289045e-06
505.0,2.429259910628031e-06
506.0,7.661139039505567e-07
507.0,8.921832805500154e-07
508.0,2.560178109404392e-06
509.0,4.223324116081866e-06
510.0,5.896167767113145e-06
511.0,7.564162595967522e-06
512.0,6.909571602085717e-06
513.0,4.228172938258769e-06
514.0,2.9092933061413544e-06
515.0,4.59668342370334e-06
516.0,6.279224719088423e-06
517.0,7.952068370119702e-06
518.0,9.610365554620273e-06
519.0,7.462337330252574e-06
520.0,4.751845733364212e-06
521.0,6.20649238643489e-07
522.0,4.271812337850889e-06
523.0,8.218753589849326e-06
524.0,1.0938942831091492e-05
525.0,1.3717317938456488e-05
526.0,1.658297184500572e-05
527.0,1.956499748380061e-05
528.0,2.693035837051514e-05
529.0,3.430056807940657e-05
530.0,4.3290284395383356e-05
531.0,5.2648511196804716e-05
532.0,6.820838156248405e-05
533.0,8.848130708411239e-05
534.0,0.00011272056914644677
535.0,0.00014426700622937287
536.0,0.00017861606253054846
537.0,0.00022796252582488275
538.0,0.0002772895938305094
539.0,0.0003367216072528004
540.0,0.0003967015375810813
541.0,0.0004281461493982925
542.0,0.0004489282012484955
543.0,0.00043770317790896675
544.0,0.00039672578169196583
545.0,0.0003489115462055326
546.0,0.0002861192990146484
547.0,0.00022496110489738025
548.0,0.0001773650664089077
549.0,0.00012970599323213538
550.0,0.00010600495043143715
551.0,8.50434921606887e-05
552.0,6.885327491201205e-05
553.0,5.4801388243349314e-05
554.0,4.496797686859153e-05
555.0,3.940637783168465e-05
556.0,3.4989100828526694e-05
557.0,3.3519907708925306e-05
558.0,3.190040110183995e-05
559.0,3.0179069229039653e-05
560.0,2.8535318511069784e-05
561.0,2.521387531989174e-05
562.0,2.16984792416376e-05
563.0,2.096630709292536e-05
564.0,2.1431794021907976e-05
565.0,2.201365268313625e-05
566.0,2.2707034254433272e-05
567.0,2.4612621369955856e-05
568.0,2.9466292369035017e-05
569.0,3.406782461491526e-05
570.0,3.6715281523503894e-05
571.0,3.9469412519984376e-05
572.0,4.443460642913229e-05
573.0,4.9375556227395686e-05
574.0,5.580509443396808e-05
575.0,6.282618894612255e-05
576.0,7.225714808019743e-05
577.0,8.377310075034031e-05
578.0,9.686007180579948e-05
579.0,0.00011282724323433862
580.0,0.0001306127229792161
581.0,0.0001576546042598
582.0,0.00018461890438555345
583.0,0.00022457319912322804
584.0,0.0002648378184802244
585.0,0.00031390305008829834
586.0,0.00036530056516346224
587.0,0.00041265901136526665
588.0,0.00045737969830283613
589.0,0.00048054252184189823
590.0,0.00047418571596797936
591.0,0.0004582233933616171
592.0,0.0004118347115951932
593.0,0.00036517934460903974
594.0,0.000314315199973335
595.0,0.00026344620651545347
596.0,0.00022625089159643625
597.0,0.00019092237321552638
598.0,0.00016804563018490152
599.0,0.00015049774272669228
600.0,0.00013644100723585263
601.0,0.00012556509909306086
602.0,0.0001185440045809064
603.0,0.0001187961433341053
604.0,0.00011828216818335365
605.0,0.0001140636928894487
606.0,0.00010984521759554375
607.0,0.00010339143527808684
608.0,9.692795531627612e-05
609.0,9.229733013733448e-05
610.0,8.8054610732545e-05
611.0,8.089290037726036e-05
612.0,7.21747181031901e-05
613.0,6.454752081892285e-05
614.0,5.807434321275834e-05
615.0,5.226060542265253e-05
616.0,4.78966654634405e-05
617.0,4.345999317157493e-05
618.0,3.894089090270203e-05
619.0,3.4334509834644886e-05
620.0,2.974752405529535e-05
621.0,2.528175883036837e-05
622.0,2.2673092499194957e-05
623.0,2.0413541364758505e-05
624.0,1.662661124459784e-05
625.0,1.194264902171026e-05
626.0,9.319436224006138e-06
627.0,9.13033215910695e-06
628.0,9.067297470807221e-06
629.0,9.188518025229779e-06
630.0,8.994565138153687e-06
631.0,6.880478669024303e-06
632.0,4.751845733364212e-06
633.0,2.6232127977041214e-06
634.0,4.89731039867128e-07
635.0,2.3759228666821061e-07
636.0,3.539640189138648e-07
637.0,2.0074123812375347e-06
638.0,4.3784864257427385e-06
639.0,5.532506103845476e-06
640.0,5.595540792145205e-06
641.0,4.005127118121264e-06
642.0,4.3639399592120317e-07
643.0,3.922697141113926e-06
644.0,3.859662452814197e-06
645.0,3.6511630992073998e-06
646.0,1.318879632117414e-06
647.0,9.843109019111583e-07
648.0,8.339974144271882e-07
649.0,3.0935485488636403e-06
650.0,1.958924159468512e-06
651.0,2.715340419065264e-07
652.0,2.4728993102201513e-07
653.0,2.5456316428736853e-06
654.0,2.7880727517187976e-06
655.0,5.915563055820754e-07
656.0,1.939528870760903e-07
657.0,2.1383305800138955e-06
658.0,4.485160513634589e-06
659.0,6.8416880916090855e-06
660.0,9.125483336930048e-06
661.0,6.987152756916153e-06
662.0,4.858519821256062e-06
663.0,2.734735707772873e-06
664.0,6.254980608203913e-07
665.0,1.4788907639551885e-06
666.0,3.578430766553866e-06
667.0,1.6679948288543763e-06
668.0,3.035362682740813e-06
669.0,3.6802560322688134e-06
670.0,6.545909938818048e-07
671.0,2.889898017433745e-06
672.0,4.169987072135941e-07
673.0,1.2849378768790984e-06
674.0,7.70962726127459e-07
675.0,2.739584529949775e-06
676.0,2.5116898876353694e-06
677.0,2.2837952453209633e-06
678.0,9.697644353804515e-09
679.0,2.501992243281565e-06
680.0,1.7455759836848127e-07
681.0,4.470614047103882e-06
682.0,4.470614047103882e-06
683.0,1.9346800485840008e-06
684.0,5.236727951054438e-07
685.0,2.5698757537581964e-07
686.0,1.939528870760903e-08
687.0,2.957781527910377e-07
688.0,4.363939959212032e-08
689.0,1.944377692937805e-06
690.0,3.69480249879952e-06
691.0,3.399024346008482e-06
692.0,3.1032461932174447e-06
693.0,2.8026192182495047e-06
694.0,2.497143421104663e-06
695.0,4.131196494720723e-06
696.0,6.104667120719942e-06
697.0,4.766392199894919e-06
698.0,2.1722723352522113e-06
699.0,2.3080393562054743e-06
700.0,4.271812337850889e-06
701.0,4.053615339890287e-06
702.0,1.4449490087168726e-06
703.0,4.460916402750077e-07
704.0,2.4001669775666175e-06
705.0,4.354242314858227e-06
706.0,6.303468829972935e-06
707.0,7.738720194336003e-06
708.0,5.110658574454979e-06
709.0,2.482596954573956e-06
710.0,2.1189352913062866e-06
711.0,1.769820094569324e-06
712.0,1.4207048978323614e-06
713.0,1.0715897010953988e-06
714.0,2.453504021512542e-06
715.0,4.3930328922734455e-06
716.0,4.848822176902258e-06
717.0,4.4900093358114905e-06
718.0,2.9141421283182567e-06
719.0,2.5698757537581964e-07
720.0,1.449797830893775e-06
721.0,1.8183083163383466e-06
722.0,1.488588408308993e-06
723.0,4.3639399592120317e-07
724.0,1.915284759876392e-06
725.0,1.541925452254918e-06
726.0,1.168566144633444e-06
727.0,7.90358014835068e-07
728.0,4.169987072135941e-07
729.0,2.2837952453209633e-06
730.0,4.208777649551159e-06
731.0,4.136045316897626e-06
732.0,3.7384418983916407e-06
733.0,3.3214431911780465e-06
734.0,2.8947468396106474e-06
735.0,9.60066791026647e-07
736.0,1.769820094569324e-06
737.0,1.958924159468512e-06
738.0,7.758115483043612e-08
739.0,7.515674374198498e-07
740.0,2.521387531989174e-07
741.0,3.345687302062558e-07
742.0,1.0424967680339854e-06
743.0,1.769820094569324e-06
744.0,2.487445776750858e-06
745.0,2.773526285188091e-06
746.0,9.79462079734256e-07
747.0,7.418697930660453e-07
748.0,2.6668521972962416e-07
749.0,2.618363975527219e-07
750.0,1.0327991236801808e-06
751.0,2.0462029586527527e-06
752.0,3.0547579714484223e-06
753.0,4.053615339890287e-06
754.0,3.127490304101956e-06
755.0,1.488588408308993e-06
756.0,2.9092933061413544e-08
757.0,1.3964607869478501e-06
758.0,1.5176813413704065e-06
759.0,8.049044813657747e-07
760.0,1.1831126111641508e-06
761.0,2.6038175089965126e-06
762.0,3.108095015394347e-06
763.0,2.356527577974497e-06
764.0,2.371074044505204e-06
765.0,3.84511598628349e-06
766.0,5.163995618400904e-06
767.0,6.322864118680544e-06
768.0,7.035640978685176e-06
769.0,5.876772478405536e-06
770.0,5.067019174862858e-06
771.0,8.868495761554229e-06
772.0,1.2829983480083373e-05
773.0,1.4711326484721448e-05
774.0,1.6592669489359526e-05
775.0,2.0432936653466116e-05
776.0,2.4263506173218894e-05
777.0,2.4379877905464547e-05
778.0,2.382711217729769e-05
779.0,2.670246372820073e-05
780.0,3.080941611203695e-05
781.0,3.481939205233511e-05
782.0,3.897483265794035e-05
783.0,4.1956858296735235e-05
784.0,4.3891538345319234e-05
785.0,4.692690102806005e-05
786.0,5.108234163366528e-05
787.0,5.507777110743274e-05
788.0,5.92720022904532e-05
789.0,6.433417264313915e-05
790.0,7.100130313637976e-05
791.0,7.765873598526654e-05
792.0,8.427737825673814e-05
793.0,9.12936239467157e-05
794.0,0.00010024939850745418
795.0,0.00010966096235282146
796.0,0.00012332009442515512
797.0,0.0001370568076523192
798.0,0.0001508226138125447
799.0,0.00016459326879494712
800.0,0.00018510378660324366
801.0,0.00020592462903086197
802.0,0.00022884986028325586
803.0,0.00025205632322191
804.0,0.0002887473606345294
805.0,0.0003283816331085285
806.0,0.0003751291277160431
807.0,0.000424199208146294
808.0,0.00048622049261105074
809.0,0.0005540894566211516
810.0,0.0006425368219500258
811.0,0.000743382625585239
812.0,0.000878562939055097
813.0,0.0010406154250293472
814.0,0.0012543612042315527
815.0,0.0015200087760153197
816.0,0.0018547908543973591
817.0,0.0022782821345058253
818.0,0.002749922218830931
819.0,0.003300787208704443
820.0,0.0038021457241517826
821.0,0.004197795067320476
822.0,0.004477833943325289
823.0,0.004430494892412192
824.0,0.0043052789085158685
825.0,0.0038780394888646564
826.0,0.0034462082346119185
827.0,0.0029883194099805076
828.0,0.00254202411917407
829.0,0.0022064565315993725
830.0,0.0018765523683272965
831.0,0.001675558991450344
832.0,0.0014745753122177455
833.0,0.0013647737340217938
834.0,0.0012558934320394536
835.0,0.0012024788069386985
836.0,0.0011526668567153815
837.0,0.0011449814735649915
838.0,0.0011425037254325944
839.0,0.00117987359794998
840.0,0.0012247833889524487
841.0,0.0013091916854079634
842.0,0.0014038503919454493
843.0,0.0015534898931468296
844.0,0.0017217294762188074
845.0,0.001964965791900932
846.0,0.002240068566929659
847.0,0.0026214575240760827
848.0,0.003058089112283954
849.0,0.003597084185468409
850.0,0.004200161292542804
851.0,0.00479522329655878
852.0,0.005384316400474989
853.0,0.005792815122412473
854.0,0.006042471278656817
855.0,0.006029539469911019
856.0,0.005746537963556119
857.0,0.0053142751641296355
858.0,0.004702499270069878
859.0,0.004086742493002883
860.0,0.0034654241168989817
861.0,0.002899096233103329
862.0,0.0024225394430908444
863.0,0.0020034993817407746
864.0,0.001693625702881482
865.0,0.0014163458066953263
866.0,0.001211274570367599
867.0,0.001025404669860405
868.0,0.0008893806613317659
869.0,0.0007639852710148966
870.0,0.000670950919906673
871.0,0.0005835848419232481
872.0,0.0005167923164364195
873.0,0.00045310788596498525
874.0,0.00040299530876670037
875.0,0.0003559132454289795
876.0,0.000324934120540751
877.0,0.00029427501791619797
878.0,0.0002656863623611823
879.0,0.00023836324939433806
880.0,0.00022175118461627093
881.0,0.0002049500157733046
882.0,0.00018593778401767086
883.0,0.00016720678394829746
884.0,0.00015299488614779693
885.0,0.0001387878371694733
886.0,0.0001245807881911497
887.0,0.00011043192507894891
888.0,0.00010102036123358163
889.0,9.167183207651408e-05
890.0,8.480105105184358e-05
891.0,7.793511884934999e-05
892.0,7.564647478185213e-05
893.0,7.34596559800692e-05
894.0,6.899389075514222e-05
895.0,6.46541949068147e-05
896.0,6.502270539225927e-05
897.0,6.586155162886337e-05
898.0,6.906662308779575e-05
899.0,7.263050738781891e-05
900.0,7.826968757955623e-05
901.0,8.395250717088569e-05
902.0,8.959653618479992e-05
903.0,9.522601873218343e-05
904.0,0.00010704744719947115
905.0,0.00011956710606023276
906.0,0.00014056250608621954
907.0,0.000163012552765277
908.0,0.00019167394065294625
909.0,0.00022137782530864947
910.0,0.0002774690002510548
911.0,0.00033821504448328625
912.0,0.00044554372336901775
913.0,0.0005618815138594336
