wavelength,intensity
101.04,0.0
102.09,1.9856314720188896e-06
103.13,7.801614266792602e-05
104.18,0.00020793432035852267
105.22,0.00034665136472421325
106.27,0.0005928504562210907
107.31,0.0009208436986732492
108.36,0.0012875019340462441
109.4,0.0017906312393525883
110.45,0.0022860189151712907
111.49,0.002725152980504661
112.54,0.002989847758730667
113.58,0.0029522529008642728
114.62,0.002799378750388681
115.67,0.0025717309131230793
116.71,0.0022522919627554114
117.76,0.0018593642634746133
118.8,0.0014646197105241299
119.85,0.0011143694045155543
120.89,0.0008228926418776467
121.94,0.0005974873848688623
122.98,0.0004193328332331114
124.03,0.0002700038506039396
125.07,0.00011595478202666236
126.12,4.7144802247867856e-05
127.16,3.2608173977358016e-05
128.21,6.62033451041132e-06
129.25,3.3055424486133304e-05
130.29,1.988778357611699e-05
131.34,0.00013084745446079995
132.38,2.5638695177276676e-05
133.43,4.2723030386551915e-05
134.47,5.3697311433668665e-06
135.52,0.0001571576484748893
136.56,0.00017608570467753202
137.61,0.00027850160542184786
138.65,0.000401040360641417
139.7,0.0005121539331419948
140.74,0.0007307916890384768
141.79,0.0009723488576007404
142.83,0.0012293170376878524
143.87,0.001495535315841841
144.92,0.0017927230212397042
145.96,0.002010468593855636
147.01,0.0022120472235693405
148.05,0.002509123406057135
149.1,0.0027506059027578742
150.14,0.00301746713473252
151.19,0.003239494702212874
152.23,0.003192039279567532
153.28,0.0033230331199698526
154.32,0.003487640450349113
155.37,0.003683337943644452
156.41,0.004040847906216286
157.45,0.004641483631324611
158.5,0.005347150178489033
159.54,0.006109646861095621
160.59,0.006900223072928649
161.63,0.007399380223107675
162.68,0.007694018902687141
163.72,0.007818609388522645
164.77,0.007752505395784937
165.81,0.0075818317039801535
166.86,0.007360657529202934
167.9,0.0071327871309994125
168.95,0.0069440515765856695
169.99,0.006712025737776542
171.04,0.0064685421321633955
172.08,0.006241369964353347
173.12,0.006092045636593465
174.17,0.005871176937613391
175.21,0.005670998162862158
176.26,0.005665635365534503
177.3,0.00596110319370622
178.35,0.006220054542063686
179.39,0.006463615728831662
180.44,0.006873622434466164
181.48,0.0073716546579001485
182.53,0.007770387851973351
183.57,0.008062175424112798
184.62,0.008376408194109126
185.66,0.008444456564539772
186.7,0.008339872319006169
187.75,0.008086322558553773
188.79,0.007718369687659545
189.84,0.00704012613919881
190.88,0.006371085655229836
191.93,0.005847107384327249
192.97,0.005430617803442229
194.02,0.004949721317581417
195.06,0.004532959232890055
196.11,0.0042533111719527
197.15,0.003952607585594365
198.2,0.0038807548292837217
199.24,0.0039305435051605895
200.28,0.0040257011555000785
201.33,0.0044272864267777354
202.37,0.004974949739367839
203.42,0.005698898285668053
204.46,0.006640108007248727
205.51,0.007632167326998576
206.55,0.008791928010558765
207.6,0.00978336668106997
208.64,0.010123307906248232
209.69,0.010001185470900774
210.73,0.009436593465444452
211.78,0.008516078516914796
212.82,0.007363290439644992
213.87,0.006087085291506495
214.91,0.0048868466404135245
215.95,0.0038212888741061923
217.0,0.002986860399387478
218.04,0.002465990708382501
219.09,0.0019637739514098496
220.13,0.0014929130728085723
221.18,0.00120677777268074
222.22,0.0010017482362237342
223.27,0.0007966071768566596
224.31,0.0006152107996898753
225.36,0.0005921139201324192
226.4,0.00046514882061222127
227.45,0.0003791010888904744
228.49,0.0003460571900546556
229.53,0.00027761349515192647
230.58,0.00019689660701968767
231.62,0.00012321904497098848
232.67,6.95657123544643e-05
233.71,7.364381424634794e-05
234.76,3.0058769950830706e-06
235.8,2.774725398912439e-05
236.85,3.404406538624844e-06
237.89,2.444727604884127e-07
238.94,8.976993006584593e-06
239.98,2.5922899191531445e-05
241.03,4.406391882253028e-05
242.07,1.6642854798890465e-05
243.11,9.1173276180285e-05
244.16,9.555365364667671e-05
245.2,2.434057335289858e-05
246.25,5.8220098807396016e-05
247.29,9.626987317042695e-05
248.34,0.00017700058044586994
249.38,0.00030179491076569044
250.43,0.0003854273471846788
251.47,0.0003808868616100057
252.52,0.00035062167729910424
253.56,0.0003278278491277045
254.61,0.00037922720675529566
255.65,0.00044382214905510855
256.7,0.00043826496244638263
257.74,0.00035405672839388714
258.78,0.0004505508111017741
259.83,0.0005629211013341614
260.87,0.000668462019483269
261.92,0.0007579824291598916
262.96,0.0008638714927413008
264.01,0.001058500790511069
265.05,0.0013166016554587053
266.1,0.001611108931957177
267.14,0.0017864787080402896
268.19,0.0019110822856956706
269.23,0.0019895745342131464
270.28,0.00202505142655267
271.32,0.002038023480522536
272.36,0.0019485821066473972
273.41,0.0018256290680610334
274.45,0.0017169727816632662
275.5,0.001692340280122385
276.54,0.0017990070947809696
277.59,0.0019402872265493706
278.63,0.002072395811170161
279.68,0.002449459618934788
280.72,0.0030009282871693243
281.77,0.003642577774660977
282.81,0.0043621400764199654
283.86,0.005675289370488716
284.9,0.007276835940230824
285.94,0.00913163164345036
286.99,0.011202044771232387
288.03,0.013197635724002633
289.08,0.014638851139643291
290.12,0.015549741176151795
291.17,0.015887350117862967
292.21,0.01514346806359351
293.26,0.013691304007477407
294.3,0.011867007395750586
295.35,0.009868798079004811
296.39,0.007992677255851259
297.44,0.006492315907296747
298.48,0.005247182011667839
299.53,0.004200648114289365
300.57,0.003313925577274977
301.61,0.002737713369471709
302.66,0.0022752453171764313
303.7,0.0018636811698587094
304.75,0.0016413088511215773
305.79,0.001464214348990141
306.84,0.0013227969955541335
307.88,0.0012150198006170385
308.93,0.001146797842352459
309.97,0.0010845772712962316
311.02,0.0010069747816482172
312.06,0.0009194700273505328
313.11,0.0008824308445056118
314.15,0.0008617215249880623
315.19,0.0008164180096248292
316.24,0.0007570422425397902
317.28,0.000769757308934281
318.33,0.000763115877198578
319.37,0.0007490450801234254
320.42,0.0007610997369374221
321.46,0.0008993100793856263
322.51,0.001087793010163953
323.55,0.0013599569140712593
324.6,0.0016987339370448484
325.64,0.0020450654249700513
326.69,0.0024911284571942152
327.73,0.0028328836267488577
328.77,0.0030459898463059297
329.82,0.0031367520393420574
330.86,0.002793389485235771
331.91,0.002412342854935037
332.95,0.0020294939174311474
334.0,0.001638101840133774
335.04,0.001351533055303327
336.09,0.0011120860941524512
337.13,0.0008921716433767908
338.18,0.0006595930388394971
339.22,0.0005828958242919103
340.27,0.0004523200008494604
341.31,0.0003556292984023001
342.36,0.00038916976511725544
343.4,0.0002578424227256075
344.44,0.00026392265178255586
345.49,0.0003033062401500091
346.53,0.00028992698209372625
347.58,0.0002647571825674225
348.62,0.0002219300091781551
349.67,0.0001881624721206554
350.71,0.00017911631551453946
351.76,0.00017646318548400386
352.8,0.00023669006632575442
353.85,0.0002500187026785104
354.89,0.00017891862903438716
355.94,0.0001249240363130526
356.98,0.00014845086093293476
358.02,0.00013016983156157786
359.07,5.5001208205259454e-05
360.11,3.761840859570718e-05
361.16,0.00012751995024190077
362.2,0.00012203981141756583
363.25,3.643258064412396e-05
364.29,7.37202801720777e-05
365.34,4.94608470094874e-05
366.38,8.678615885106737e-07
367.43,3.969538217989455e-05
368.47,2.9454805509297938e-05
369.52,2.8128371412228906e-05
370.56,1.0298132189836443e-05
371.6,1.1763218357053991e-05
372.65,7.756791754589317e-05
373.69,2.871076344389664e-05
374.74,4.505724853369048e-05
375.78,8.80677510406444e-05
376.83,0.0001109735385161089
377.87,8.081468887554693e-05
378.92,7.757402706183608e-05
379.96,7.153302497629886e-05
381.01,4.7065926457516184e-05
382.05,7.283861883565156e-05
383.1,6.786862459254852e-05
384.14,5.716882567122184e-05
385.19,5.383821820612945e-05
386.23,6.485828183224051e-05
387.27,4.964990258616482e-05
388.32,4.263136340329757e-05
389.36,4.0162057070310506e-05
390.41,9.932962542871758e-06
391.45,8.667410257055916e-06
392.5,3.265239038678919e-05
393.54,7.680000957773717e-05
394.59,9.7278767600775e-05
395.63,0.00019198649573046934
396.68,0.00025434627647139566
397.72,0.0003007470802932618
398.77,0.00036949479634648273
399.81,0.0003985729889884785
400.85,0.00043870033818964674
401.9,0.0005186305049236831
402.94,0.0006630439455827985
403.99,0.0008666561713174957
405.03,0.0011762573463704464
406.08,0.0014892958514646029
407.12,0.0017438037391791549
408.17,0.0019288217016298675
409.21,0.0019108146307115054
410.26,0.0017552891442695832
411.3,0.0015293054227750941
412.35,0.0014040264041904706
413.39,0.0013768337245401853
414.43,0.0014145619250164438
415.48,0.001458345819509436
416.52,0.0013907959079985752
417.57,0.001295215925247478
418.61,0.001081464812340878
419.66,0.0008058378796348284
420.7,0.0005537723436507822
421.75,0.0003892726571238493
422.79,0.00027956616433078674
423.84,0.00022653920256307487
424.88,0.00022039705404692744
425.93,0.00013279168668907244
426.97,7.413078145757424e-05
428.02,5.6827371613524386e-05
429.06,7.501457627575822e-05
430.1,7.055627823698367e-05
431.15,7.555662610691412e-05
432.19,7.013384884893194e-05
433.24,7.164246289283154e-05
434.28,0.00013949382567843028
435.33,0.00015727222614292946
436.37,0.00018014518709225636
437.42,0.00019196069999648824
438.46,0.00016081724852468448
439.51,0.00023125463364189052
440.55,0.0002543658172247686
441.6,0.00029134283816938166
442.64,0.00038955728298563347
443.68,0.0004697495770465532
444.73,0.0005312282298214929
445.77,0.0006205512924355155
446.82,0.0007413247854533616
447.86,0.0008086821987237993
448.91,0.0010391234424455146
449.95,0.0012723435461568123
451.0,0.001523068382808945
452.04,0.0019119841666205744
453.09,0.0023652942484703363
454.13,0.002720918019215355
455.18,0.003036363479638126
456.22,0.003396718246181148
457.26,0.0034902418434470213
458.31,0.003475926180851935
459.35,0.003345773126215089
460.4,0.003122916895024702
461.44,0.003007370917195774
462.49,0.002950833165730876
463.53,0.0030276389938952257
464.58,0.003227410467583598
465.62,0.0034346496123066187
466.67,0.003828180020184006
467.71,0.004440586746008979
468.76,0.005262024256351337
469.8,0.00626379576692152
470.85,0.007601052435089394
471.89,0.009528798667960425
472.93,0.012192741571950525
473.98,0.015703730070845856
475.02,0.020325050360030038
476.07,0.02611342881015065
477.11,0.03169132958721628
478.16,0.03639129777210982
479.2,0.03981506080886485
480.25,0.03903401738143161
481.29,0.036153530927843236
482.34,0.03173059050038266
483.38,0.026166436134188543
484.43,0.02124040616176347
485.47,0.016680336194317916
486.51,0.013019165126137391
487.56,0.010628002411353282
488.6,0.008802197815929445
489.65,0.007564550501741673
490.69,0.006677613646787066
491.74,0.006092409298256733
492.78,0.006002119380500636
493.83,0.005944898429991012
494.87,0.006044270191684448
495.92,0.0064337275889332374
496.96,0.007278460295660086
498.01,0.0083413560585923
499.05,0.010019649785750418
500.09,0.01241868213892764
501.14,0.01558227677295881
502.18,0.01944263745616648
503.23,0.02511580789136389
504.27,0.03152308515532213
505.32,0.03814436033723576
506.36,0.04456247956758155
507.41,0.04698001502618583
508.45,0.046730305532897545
509.5,0.04418108091279078
510.54,0.03972447511295596
511.59,0.033544336075052535
512.63,0.027128175768866218
513.68,0.021340228863919355
514.72,0.01672138632286757
515.76,0.013412516127594235
516.81,0.010811142424974881
517.85,0.008829884590559556
518.9,0.007365225119693576
519.94,0.006232671177367984
520.99,0.005333020710665539
522.03,0.004671744160766223
523.08,0.004155700017591699
524.12,0.0036871365109378378
525.17,0.003206801518685111
526.21,0.0028807177424062165
527.26,0.002614526617656419
528.3,0.002370117371889701
529.34,0.002145549991353085
530.39,0.0019435887895696234
531.43,0.001803363761506916
532.48,0.001654759968722522
533.52,0.0014077362380380187
534.57,0.001320249424382389
535.61,0.0012696238417977878
536.66,0.0011962194623905353
537.7,0.0011008605859307047
538.75,0.0011498133248642746
539.79,0.0009859129527584067
540.84,0.0008627058358899735
541.88,0.0008099137995567325
542.92,0.0007869526870202295
543.97,0.0007733609535761547
545.01,0.0006746345701144656
546.06,0.000630710544660561
547.1,0.0006959698725750533
548.15,0.0005335139645956847
549.19,0.000538935432671679
550.24,0.000514886729320897
551.28,0.0004700965102733106
552.33,0.0005404763883594986
553.37,0.0004448438928642254
554.42,0.0003940069016327114
555.46,0.00040174062754020517
556.51,0.0004510740475028836
557.55,0.00040130656097892893
558.59,0.00041748363791950613
559.64,0.0004200171959951593
560.68,0.0003658731140861109
561.73,0.0002243596569945573
562.77,0.00032591872237199275
563.82,0.00037687577044060686
564.86,0.0004046171912966524
565.91,0.0004495821134072725
566.95,0.00044787484311878525
568.0,0.0003945458482176741
569.04,0.000396268101366688
570.09,0.0004976559548330571
571.13,0.0007027567689760634
572.17,0.0007824714055643364
573.22,0.000892066423935552
574.26,0.0010528669440237261
575.31,0.0012690909562405464
576.35,0.001547277097291565
577.4,0.0016969025369086323
578.44,0.0018576686303593507
579.49,0.0019935559021026007
580.53,0.0018850644756588483
581.58,0.0017664613154473837
582.62,0.0015378941414970415
583.67,0.001305794115708608
584.71,0.0011642676637736201
585.76,0.0009189914486016725
586.8,0.0006861854343042821
587.84,0.0005713585368041891
588.89,0.0005322770300583569
589.93,0.0003802736795575147
590.98,0.00032379886580447285
592.02,0.0002750406131284186
593.07,0.00023545347120597904
594.11,0.00020901357119865757
595.16,0.00018456852512313546
596.2,0.00010946002716181063
597.25,7.930694761963917e-05
598.29,0.00011282569161124202
599.34,0.0001888752974688818
600.38,0.00018274415577907598
601.42,0.00016469155442047292
602.47,0.00013180820008693137
603.51,8.506390570205344e-05
604.56,4.782994082146414e-05
605.6,1.6712032944888325e-05
606.65,1.9833457372446982e-05
607.69,4.221250274836806e-05
608.74,4.893634991461189e-05
609.78,8.602237238176172e-05
610.83,8.113010475815441e-05
611.87,8.090114337496109e-05
612.92,9.159580254478024e-05
613.96,2.7239664737179734e-05
615.0,8.459599436198239e-05
616.05,0.00010229710460098177
617.09,0.00010038531099307273
618.14,0.00012737220663017055
619.18,6.438634596976262e-05
620.23,8.647098540956873e-05
621.27,0.00014222744615710248
622.32,0.0002043096803166229
623.36,0.0002579447813617619
624.41,0.0001769476797959199
625.45,8.574341964192454e-05
626.5,8.451972238913973e-05
627.54,0.00022264477405525227
628.59,0.00029442256757504113
629.63,0.0002171793756503351
630.67,0.00021489475610524407
631.72,0.0002808570177707217
632.76,0.0002983638841933144
633.81,0.0002650562094310721
634.85,0.0002903010687246742
635.9,0.0003220191541126626
636.94,0.0003383449444294055
637.99,0.0003776790263224325
639.03,0.00034524064840006527
640.08,0.00036095185050588575
641.12,0.00041798500613259785
642.17,0.0004786129815448217
643.21,0.0004185098911332475
644.25,0.0005365081122899217
645.3,0.0005808564096843052
646.34,0.0005436509122387164
647.39,0.000595230743027732
648.43,0.0005929450082535402
649.48,0.0005691867493511545
650.52,0.0005141564967010555
651.57,0.00043789136069765234
652.61,0.0004156936952129027
653.66,0.0003618846184280564
654.7,0.00030798132902831293
655.75,0.0002667360353860381
656.79,0.00024401581233528364
657.83,0.00019957533883131732
658.88,0.00014539101169820057
659.92,0.00013707882130500234
660.97,0.00015601919351597443
662.01,0.00011595138785113852
663.06,7.4527803017419e-05
664.1,7.732731898947528e-05
665.15,6.824891771588296e-05
666.19,3.35218617842626e-05
667.24,8.369920470036431e-05
668.28,2.7106802160710436e-05
669.33,1.900396936264431e-05
670.37,2.1148375516845864e-05
671.41,2.270331035900141e-05
672.46,4.243969916028899e-05
673.5,4.488826708082544e-05
674.55,2.289952279721194e-05
675.59,1.4391149058736239e-05
676.64,6.538166369801535e-05
677.68,2.841499013992778e-05
678.73,2.3448758582834008e-06
679.77,2.1518389137165277e-05
680.82,1.4471833459759893e-05
681.86,5.9625045033153455e-05
682.91,4.704187629951875e-05
683.95,6.296205294351936e-05
685.0,1.593047069348216e-05
686.04,2.9877661593701226e-05
687.08,7.569050208721839e-06
688.13,1.3210926345589522e-05
689.17,4.853666150256983e-05
690.22,1.2971685459381165e-05
691.26,0.0001701438125172907
692.31,5.694548892175372e-05
693.35,6.3325617630343485e-06
694.4,4.232893751530201e-05
695.44,0.00010807724005340165
696.49,6.425712485874817e-05
697.53,6.077154903688199e-05
698.58,4.787005027851148e-05
699.62,2.871753724847777e-06
700.66,6.665147324970251e-05
701.71,2.808272944907773e-06
702.75,5.595070456394046e-05
703.8,5.922889626130053e-05
704.84,2.3223336839829823e-05
705.89,2.8858671915580863e-05
706.93,8.12778968581064e-05
707.98,1.6062373203160432e-05
709.02,1.4099167533709717e-05
710.07,7.360706017424702e-07
711.11,2.696848465929212e-05
712.16,8.555741882321856e-05
713.2,9.425024175730363e-05
714.25,0.00011826257894175898
715.29,0.00016399487565009563
716.33,0.0002027903988639341
717.38,0.00011022846850040609
718.42,9.728109503541993e-05
719.47,9.834371441548805e-05
720.51,0.00010551274649225981
721.56,0.000180852921177197
722.6,0.00012396246638715112
723.65,0.00016132976902878305
724.69,0.0001953963814381541
725.74,0.00017345560655233672
726.78,0.0001664456643311891
727.83,0.0001697114915319981
728.87,0.00015217228346548547
729.91,0.00015436399957766706
730.96,0.00020048216555484157
732.0,0.00021557776119708252
733.05,0.00021746681382898186
734.09,0.0002142873441511435
735.14,0.00021913970596823494
736.18,0.0002393009631151292
737.23,0.00023977862058777584
738.27,0.00025565948298156613
739.32,0.00024089118283626606
740.36,0.00024798176097021553
741.41,0.0003599488231503717
742.45,0.00043411432217473257
743.49,0.00040662217926680153
744.54,0.00038703914416450286
745.58,0.0004208863958585908
746.63,0.0005183963068125388
747.67,0.0006085247587901448
748.72,0.0005624323400587297
749.76,0.0006190311866830567
750.81,0.0007912676538754549
751.85,0.0008737810306242359
752.9,0.001014820175930445
753.94,0.001179131728156914
754.99,0.0014234847275863796
756.03,0.0017495083784702804
757.08,0.0021064064196833886
758.12,0.002373783081455439
759.16,0.00297371427270146
760.21,0.0036702335168291565
761.25,0.004328922735214879
762.3,0.005080518295803356
763.34,0.005508121377117835
764.39,0.005619668531297471
765.43,0.005462678215675906
766.48,0.005066262758603263
767.52,0.004313888477173176
768.57,0.004003279231989647
769.61,0.003527555954509372
770.66,0.0030358713241871705
771.7,0.0027293515756276407
772.74,0.0027063395504582804
773.79,0.002596613613888289
774.83,0.0024986596477993795
775.88,0.0024217878756534247
776.92,0.0023416072672539515
777.97,0.0021544999473272113
779.01,0.001955550348997823
780.06,0.0017911146669236256
781.1,0.0016387413997789077
782.15,0.0014704043553811742
783.19,0.0012994872527031113
784.24,0.0012090979340923878
785.28,0.001100854282461875
786.32,0.0009909993672219772
787.37,0.0009080937207590847
788.41,0.000805199774636348
789.46,0.0008111022458722912
790.5,0.0008126301097402331
791.55,0.000809685904914418
792.59,0.0008289871264717952
793.64,0.0008932257773180493
794.68,0.0007815554630551195
795.73,0.0008308224056657527
796.77,0.0009325269357084952
797.82,0.0009191393376780681
798.86,0.0009415253799043904
799.91,0.0010682939566617584
800.95,0.0010933822474872685
801.99,0.0010974533185869955
803.04,0.0011961617614066303
804.08,0.00122146630970123
805.13,0.0014223006452107798
806.17,0.0016040815339761925
807.22,0.001794808014775772
808.26,0.0020612221853457077
809.31,0.0023915123148630646
810.35,0.0028985056465621827
811.4,0.003628586498269525
812.44,0.004372192654557119
813.49,0.004953343387747563
814.53,0.005695077413792654
815.57,0.006068048815639977
816.62,0.0061036149263075535
817.66,0.005758485461400006
818.71,0.005034541763921967
819.75,0.004214910439840506
820.8,0.003496040549888378
821.84,0.002796076217603993
822.89,0.002203162241812385
823.93,0.00178000019672973
824.98,0.0013846917257600729
826.02,0.0012049958305307283
827.07,0.0010946550633087052
