wavelength,intensity
206.0,0.0
207.0,6.788351047663161e-07
208.0,9.79462079734256e-07
209.0,3.9372436076446324e-05
210.0,8.138263141712749e-05
211.0,7.15298247536621e-05
212.0,6.296680478925272e-05
213.0,8.653208056899769e-05
214.0,8.048559931440057e-05
215.0,6.544455292164977e-05
216.0,4.7746351975956525e-05
217.0,3.026634802822389e-05
218.0,1.1176535117759704e-05
219.0,7.986010125358018e-06
220.0,1.1515952670142862e-05
221.0,2.618363975527219e-07
222.0,1.2708762925660817e-05
223.0,2.8850491952568434e-05
224.0,4.5103743889544796e-05
225.0,5.682819591329446e-05
226.0,6.716103597227318e-05
227.0,8.939288565337002e-05
228.0,0.0001305787812239778
229.0,0.0001717889209054701
230.0,0.0002090521193349639
231.0,0.0002463880500971113
232.0,0.00029697581186873256
233.0,0.00035491923688271454
234.0,0.0004168726378369947
235.0,0.0004893140411599144
236.0,0.0005618184791711339
237.0,0.0006344053471593606
238.0,0.0007070407033693565
239.0,0.0007775183337106308
240.0,0.0008461679580912129
241.0,0.0009166795301877255
242.0,0.000995686238738171
243.0,0.0010747220402216777
244.0,0.0011438274538868886
245.0,0.0012106684675954862
246.0,0.0012756960218099226
247.0,0.0013385028154673376
248.0,0.0014011544468150916
249.0,0.0014619877698465074
250.0,0.0015228550346331614
251.0,0.0015672605481292323
252.0,0.0016056050339041752
253.0,0.0016401674383811347
254.0,0.0016682906070071674
255.0,0.0016964331709219084
256.0,0.0017246048277697104
257.0,0.0017527813334396894
258.0,0.0017606800647658632
259.0,0.001758003514924213
260.0,0.0017553560580156244
261.0,0.0017527425428622743
262.0,0.001750177515930693
263.0,0.00173008399682961
264.0,0.0017090837479814462
265.0,0.0016832152816676728
266.0,0.0016540253721627214
267.0,0.0016218049487972056
268.0,0.001580168112764146
269.0,0.0015385409743754403
270.0,0.0015024220979796953
271.0,0.001466957812577832
272.0,0.001425873742272939
273.0,0.0013800620703455667
274.0,0.0013354626039624197
275.0,0.0012958234826662438
276.0,0.0012561843613700678
277.0,0.001223532392830808
278.0,0.0011921168739466583
279.0,0.0011638336941887874
280.0,0.0011386198188688957
281.0,0.0011137356634570333
282.0,0.0010905631422736175
283.0,0.0010673906210902015
284.0,0.0010475880313197327
285.0,0.0010285418578088606
286.0,0.001005553591868167
287.0,0.0009781965371460845
288.0,0.000950039426764813
289.0,0.0009166310419659565
290.0,0.0008832469012779846
291.0,0.000838322563808985
292.0,0.0007903774101237755
293.0,0.0007424807446603351
294.0,0.0006946568115295481
295.0,0.000646343147358894
296.0,0.0005943104365785559
297.0,0.0005424377369300556
298.0,0.0004987450002939893
299.0,0.00045711301308310647
300.0,0.00041627138388705876
301.0,0.00037646255381469125
302.0,0.00033812291686192514
303.0,0.00031086283858338065
304.0,0.00028346214446170595
305.0,0.0002592228823993716
306.0,0.000235837013040172
307.0,0.00021056980067633434
308.0,0.000183004246600645
309.0,0.00015720366379734808
310.0,0.00014423791329631146
311.0,0.00013138853452752047
312.0,0.0001269227693025935
313.0,0.0001248426245887024
314.0,0.00011935375788444905
315.0,0.0001093166959782614
316.0,9.978876040064845e-05
317.0,9.2370062469988e-05
318.0,8.492712042844304e-05
319.0,7.748417838689807e-05
320.0,7.016730572195256e-05
321.0,6.799018456452346e-05
322.0,7.113707015733302e-05
323.0,7.419667695095834e-05
324.0,7.700899381356166e-05
325.0,7.938976550242067e-05
326.0,8.478650458531287e-05
327.0,8.990686080412167e-05
328.0,9.25882594679486e-05
329.0,9.401381318795787e-05
330.0,9.428049840768749e-05
331.0,8.962562911786133e-05
332.0,8.502409687198109e-05
333.0,8.412706476925417e-05
334.0,8.369067077333298e-05
335.0,8.444223821075282e-05
336.0,8.605689599566127e-05
337.0,8.65708711464129e-05
338.0,8.393311188217807e-05
339.0,8.128565497358944e-05
340.0,8.258029049482234e-05
341.0,8.412706476925417e-05
342.0,7.907944088309892e-05
343.0,7.014306161106805e-05
344.0,6.652584026709897e-05
345.0,7.437608337150373e-05
346.0,8.212450121019354e-05
347.0,7.528281311858444e-05
348.0,6.844112502697536e-05
349.0,6.745681412506421e-05
350.0,6.900843722167293e-05
351.0,6.729680299322642e-05
352.0,6.044541725726354e-05
353.0,5.445227304661235e-05
354.0,5.8108284967996655e-05
355.0,6.176429688938096e-05
356.0,5.56208391912458e-05
357.0,4.665051816397662e-05
358.0,4.5608021395942636e-05
359.0,5.3467962144701186e-05
360.0,6.026601083671816e-05
361.0,6.180793628897307e-05
362.0,6.3349861741228e-05
363.0,6.670524668764436e-05
364.0,7.034671214249795e-05
365.0,6.447478848626932e-05
366.0,5.1247201587679965e-05
367.0,4.080283861863249e-05
368.0,3.811174231045174e-05
369.0,3.541579718009409e-05
370.0,2.8641992598961635e-05
371.0,2.1722723352522117e-05
372.0,1.9031627044341358e-05
373.0,1.8440070738759285e-05
374.0,1.7848514433177208e-05
375.0,1.7256958127595135e-05
376.0,1.6825412953850835e-05
377.0,1.834309429522124e-05
378.0,1.9860775636591646e-05
379.0,1.6418111890991045e-05
380.0,1.1583836180619492e-05
381.0,7.787208416105026e-06
382.0,5.071867997039762e-06
383.0,3.6075236996152795e-06
384.0,7.234442687938168e-06
385.0,1.0856512854084154e-05
386.0,6.78835104766316e-06
387.0,1.939528870760903e-06
388.0,2.957781527910377e-07
389.0,9.164273914345267e-07
390.0,1.4546466530706772e-07
391.0,3.4620590343082117e-06
392.0,7.161710355284634e-06
393.0,1.2883320524029298e-05
394.0,1.8604930692773964e-05
395.0,2.2716731898787074e-05
396.0,2.630970913187165e-05
397.0,2.4879306589685483e-05
398.0,1.7848514433177208e-05
399.0,1.3634887961449146e-05
400.0,2.146573577714629e-05
401.0,2.929173477066654e-05
402.0,3.3258071311372584e-05
403.0,3.682680443357264e-05
404.0,4.0385839911418905e-05
405.0,4.3940026567088254e-05
406.0,4.674264578533776e-05
407.0,4.815365303881631e-05
408.0,5.000105428821608e-05
409.0,5.77882627043211e-05
410.0,6.556577347607232e-05
411.0,5.984416330732766e-05
412.0,5.057321530509054e-05
413.0,4.348908610463634e-05
414.0,3.846570632936561e-05
415.0,3.2913804936812525e-05
416.0,2.573754811499718e-05
417.0,1.8556442471004938e-05
418.0,1.3426388607842352e-05
419.0,8.359369432979492e-06
420.0,4.756694555541115e-06
421.0,1.7940642054538351e-06
422.0,2.084993536067971e-06
423.0,7.215047399230559e-06
424.0,1.170505673504205e-05
425.0,1.2597240015592064e-05
426.0,1.3494272118318982e-05
427.0,1.625810075915327e-05
428.0,1.9254672864478865e-05
429.0,1.9594090416862026e-05
430.0,1.829945489562912e-05
431.0,1.548713803302581e-05
432.0,9.862504307819191e-06
433.0,4.567590490641927e-06
434.0,3.1032461932174447e-06
435.0,1.5176813413704065e-06
436.0,3.617221343969084e-06
437.0,9.469749711490109e-06
438.0,1.4071281957370352e-05
439.0,1.7664259190454922e-05
440.0,2.1203899379593573e-05
441.0,2.4690202524786295e-05
442.0,2.8273482113517066e-05
443.0,3.58764352868998e-05
444.0,4.3426051416336616e-05
445.0,5.26145694415664e-05
446.0,6.22734232179557e-05
447.0,6.970181879296995e-05
448.0,7.503067436538553e-05
449.0,7.979221774310355e-05
450.0,8.294880098026691e-05
451.0,8.610538421743028e-05
452.0,9.140029803460756e-05
453.0,9.668551420743102e-05
454.0,0.00010035122377316913
455.0,0.00010344962114420967
456.0,0.00011077134263133207
457.0,0.0001224133646780744
458.0,0.00013195099790004115
459.0,0.000134933023538836
460.0,0.0001378956538889233
461.0,0.00014297237070813997
462.0,0.00014806363399388735
463.0,0.00015792613830170653
464.0,0.00016946633508273392
465.0,0.0001778257045157134
466.0,0.00018293636309016836
467.0,0.00019174182416342286
468.0,0.00021200020321852052
469.0,0.00023226343109579504
470.0,0.00025683726188833566
471.0,0.000281425639147407
472.0,0.0003125211357678812
473.0,0.0003457986023679614
474.0,0.0003813744106798933
475.0,0.000419238863059323
476.0,0.000456545700888409
477.0,0.0004922912179765324
478.0,0.0005277845963114569
479.0,0.0005465689334247763
480.0,0.0005653920611155108
481.0,0.0005604317160285399
482.0,0.0005488333333813895
483.0,0.0005325606861557057
484.0,0.000512350795322377
485.0,0.0004902110732626413
486.0,0.00046358619068927106
487.0,0.00043744134151141404
488.0,0.0004192679559923844
489.0,0.00040089576876410176
490.0,0.00038593715234835825
491.0,0.0003717446498365654
492.0,0.00036160091384248585
493.0,0.0003542064600227099
494.0,0.0003547107375291077
495.0,0.0003689468794404928
496.0,0.0003853649913314838
497.0,0.00041858427206544114
498.0,0.0004518471921989907
499.0,0.0004949871631068901
500.0,0.0005393053978037767
501.0,0.0005967881847109529
502.0,0.0006608508233121855
503.0,0.0007307417461700548
504.0,0.0008079834834481076
505.0,0.000880541258503273
506.0,0.0009358954124747892
507.0,0.0009912932058458975
508.0,0.001003817713528836
509.0,0.0010155421655525857
510.0,0.0009973008965230795
511.0,0.0009694492619389529
512.0,0.0009216059335194583
513.0,0.0008565832281271989
514.0,0.000789611296219825
515.0,0.0007180378320665708
516.0,0.0006469540989531838
517.0,0.0005817810800734405
518.0,0.0005167098864594121
519.0,0.00046113753548993535
520.0,0.00040687436650822226
521.0,0.00035672784755469905
522.0,0.0003087487521142512
523.0,0.00026732526425697525
524.0,0.0002345617728076467
525.0,0.00020412571600323122
526.0,0.0001821896444749254
527.0,0.00016015659650308158
528.0,0.00013581550917503223
529.0,0.00011136774775909105
530.0,0.00010217438091168437
531.0,9.692310649409923e-05
532.0,8.886436403608769e-05
533.0,7.88273021299e-05
534.0,6.870296142452809e-05
535.0,5.836042372119557e-05
536.0,4.8425187080722846e-05
537.0,4.216535765034203e-05
538.0,3.594431879737644e-05
539.0,3.197313343449349e-05
540.0,2.8515923222362177e-05
541.0,2.377862395552867e-05
542.0,1.8498256604882113e-05
543.0,1.671389004378208e-05
544.0,1.82606643182139e-05
545.0,1.9899566214006864e-05
546.0,2.1572409865038142e-05
547.0,2.326464880477703e-05
548.0,2.4976283033223526e-05
549.0,2.6683068439493122e-05
550.0,3.2361039208645666e-05
551.0,3.848995044025012e-05
552.0,4.156410370040615e-05
553.0,4.334847026150618e-05
554.0,4.513283682260621e-05
555.0,4.6902656917175536e-05
556.0,4.799849072915544e-05
557.0,4.752815497799593e-05
558.0,4.70384239381288e-05
559.0,4.652929760955406e-05
560.0,4.6000775992271715e-05
561.0,4.744087617881169e-05
562.0,4.908462689678155e-05
563.0,5.380737969708435e-05
564.0,5.9834465662973855e-05
565.0,6.361654696095761e-05
566.0,6.519726299062775e-05
567.0,6.811140511894601e-05
568.0,7.405606110782817e-05
569.0,7.922975437058288e-05
570.0,7.853152397710897e-05
571.0,7.779450300621981e-05
572.0,6.683616488642071e-05
573.0,5.4995341130425405e-05
574.0,4.7993641906978546e-05
575.0,4.277630924463171e-05
576.0,3.8756635659979744e-05
577.0,3.572612179941583e-05
578.0,3.2656817361436706e-05
579.0,2.9572966456926868e-05
580.0,2.6106058600441757e-05
581.0,2.0786900672379977e-05
582.0,1.543864981125679e-05
583.0,1.43913042210459e-05
584.0,1.3431237430019253e-05
585.0,8.941228094207763e-06
586.0,3.4960007895465275e-06
587.0,2.0704470695372638e-06
588.0,3.239013214170708e-06
589.0,3.4523613899544073e-06
590.0,2.356527577974497e-06
591.0,1.2364496551100757e-06
592.0,9.212762136114289e-08
593.0,9.455203244959402e-07
594.0,8.727879918424063e-08
595.0,1.0958338119799103e-06
596.0,4.034220051182678e-06
597.0,7.2247450435843634e-06
598.0,5.716761346567761e-06
599.0,2.1868188017829184e-06
600.0,2.0365053142989484e-07
601.0,1.5467742744318202e-06
602.0,6.061027721127822e-07
603.0,4.688811045064483e-06
604.0,8.820007539785206e-06
605.0,7.3847561754221375e-06
606.0,5.939807166705266e-06
607.0,4.470614047103882e-06
608.0,2.9868744609717906e-06
609.0,1.4982860526627975e-06
610.0,0.0
611.0,2.9092933061413544e-08
612.0,7.612650817736545e-07
613.0,5.236727951054438e-07
614.0,8.824856361962108e-07
615.0,8.921832805500154e-07
616.0,2.1722723352522113e-06
617.0,5.5712966812606935e-06
618.0,1.09534892976222e-05
619.0,1.639386778010653e-05
620.0,1.308212223328229e-05
621.0,9.547330866320546e-06
622.0,1.15983826471502e-05
623.0,1.507983697016602e-05
624.0,1.4240990733561929e-05
625.0,1.1001977519391223e-05
626.0,1.0919547542383883e-05
627.0,1.4231293089208126e-05
628.0,1.821702491862178e-05
629.0,2.371558926722894e-05
630.0,2.783708811759586e-05
631.0,2.4462307882471888e-05
632.0,2.1077830002994115e-05
633.0,2.431199439498792e-05
634.0,2.7507368209566508e-05
635.0,3.256953856225246e-05
636.0,3.796627764514468e-05
637.0,3.71613731637789e-05
638.0,3.342778008756416e-05
639.0,3.218163278810028e-05
640.0,3.321443191178046e-05
641.0,3.3238676022664974e-05
642.0,3.164341352646413e-05
643.0,3.1430065350680436e-05
644.0,3.6492235703366386e-05
645.0,4.092890799523196e-05
646.0,3.6788013856157426e-05
647.0,3.2584085028783166e-05
648.0,3.239982978606089e-05
649.0,3.249195740742202e-05
650.0,3.239013214170708e-05
651.0,3.2186481610277185e-05
652.0,3.471756678662017e-05
653.0,3.902332087970937e-05
654.0,4.024522406828874e-05
655.0,3.7820812979837605e-05
656.0,3.611887639574492e-05
657.0,3.599765584132236e-05
658.0,3.560490124499327e-05
659.0,3.335504775491063e-05
660.0,3.117792659748151e-05
661.0,3.1236112463604344e-05
662.0,3.1289449507550266e-05
663.0,3.133308890714238e-05
664.0,3.138157712891141e-05
665.0,3.1439762995034234e-05
666.0,3.153189061639538e-05
667.0,3.1687052926056255e-05
668.0,3.1803424658301904e-05
669.0,3.189555227966305e-05
670.0,3.1977982256670385e-05
671.0,3.207495870020843e-05
672.0,3.219617925463099e-05
673.0,3.271985204973643e-05
674.0,3.5095774916418545e-05
675.0,3.7301989006909064e-05
676.0,3.510547256077234e-05
677.0,3.2879863181574206e-05
678.0,3.6749223278742205e-05
679.0,4.131681376938414e-05
680.0,4.067192041985613e-05
681.0,3.832024166405854e-05
682.0,3.449452096648266e-05
683.0,2.979601227706437e-05
684.0,3.1842215235717125e-05
685.0,4.074950157468657e-05
686.0,4.3823654834842604e-05
687.0,3.675892092309602e-05
688.0,3.17888781917712e-05
689.0,3.3670221196409274e-05
690.0,3.563399417805469e-05
691.0,3.9605179540937636e-05
692.0,4.353757432640536e-05
693.0,4.062828102026401e-05
694.0,3.731168665126287e-05
695.0,3.39223599496082e-05
696.0,3.060091675843015e-05
697.0,3.224951629857691e-05
698.0,3.5730970621592735e-05
699.0,3.77965688689531e-05
700.0,3.889240268093301e-05
701.0,3.9930050626790085e-05
702.0,4.10307332609469e-05
703.0,4.138954610203767e-05
704.0,4.044402577754172e-05
705.0,3.859662452814197e-05
706.0,3.3170792512188344e-05
707.0,2.808922687079478e-05
708.0,2.6964300125753454e-05
709.0,2.5786036336766204e-05
710.0,2.46999001691401e-05
711.0,2.3943483909543347e-05
712.0,2.337617171484578e-05
713.0,2.2774917764909902e-05
714.0,1.864857009236608e-05
715.0,1.3373051563896426e-05
716.0,9.527935577612936e-06
717.0,6.448933495280003e-06
718.0,3.292350258116633e-06
719.0,1.4061584313016547e-07
720.0,1.99771473688373e-06
721.0,2.8026192182495047e-06
722.0,3.6851048544457156e-06
723.0,4.567590490641927e-06
724.0,5.721610168744663e-06
725.0,8.558171142232484e-06
726.0,1.1021372808098831e-05
727.0,1.1244418628236335e-05
728.0,1.1540196781027372e-05
729.0,1.6427809535344847e-05
730.0,2.136875933360825e-05
731.0,2.223184968109685e-05
732.0,2.2522779011710982e-05
733.0,2.119420173523977e-05
734.0,1.9327405197132398e-05
735.0,1.8866767090326682e-05
736.0,1.91140570213487e-05
737.0,2.0563854852242473e-05
738.0,2.302705651810882e-05
739.0,2.3424659936614807e-05
740.0,2.1320271111839226e-05
741.0,2.0001391479721812e-05
742.0,2.017110025591339e-05
743.0,1.9744403904345993e-05
744.0,1.7557585102563074e-05
745.0,1.6384170135752726e-05
746.0,2.1150562335647647e-05
747.0,2.5490258183975167e-05
748.0,2.1029341781225088e-05
749.0,1.658297184500572e-05
750.0,1.65393324454136e-05
751.0,1.6704192399428276e-05
752.0,1.4847093505674712e-05
753.0,1.262633294865348e-05
754.0,1.2175392486201569e-05
755.0,1.2291764218447223e-05
756.0,1.0871059320614862e-05
757.0,8.664845230124334e-06
758.0,6.4586311396338075e-06
759.0,4.242719404789475e-06
760.0,2.0074123812375347e-06
761.0,2.4244110884511287e-07
762.0,2.501992243281565e-06
763.0,4.766392199894919e-06
764.0,7.045338623038981e-06
765.0,9.343680334890651e-06
766.0,1.0167980104964033e-05
767.0,5.517959637314769e-06
768.0,1.7601224502155195e-06
769.0,4.087557095128603e-06
770.0,6.216190030788694e-06
771.0,3.90815067458322e-06
772.0,1.619506607085354e-06
773.0,2.865653906549234e-06
774.0,7.4283955750142586e-06
775.0,5.9058654114669494e-06
776.0,3.4960007895465275e-06
777.0,2.918990950495159e-06
778.0,2.8220145069571135e-06
779.0,2.7007939525345575e-06
780.0,2.565026931581294e-06
781.0,4.994286842209325e-07
782.0,5.30461146153107e-06
783.0,1.0143735994079524e-05
784.0,1.499255817098178e-05
785.0,1.7644863901747315e-05
786.0,1.785336325535411e-05
787.0,1.9923810324891377e-05
788.0,2.4830818367916464e-05
789.0,2.975722169964915e-05
790.0,3.469817149791255e-05
791.0,3.9605179540937636e-05
792.0,4.451703640613962e-05
793.0,4.947253267093373e-05
794.0,5.444742422443544e-05
795.0,5.921866524650727e-05
796.0,6.189036626598041e-05
797.0,6.440205615361579e-05
798.0,6.009630206052658e-05
799.0,5.580509443396808e-05
800.0,5.377343794184603e-05
801.0,5.185815318196964e-05
802.0,4.996711253297776e-05
803.0,4.810031599487039e-05
804.0,4.819244361623154e-05
805.0,4.8720965233513886e-05
806.0,4.748936440058071e-05
807.0,4.5690451372949974e-05
808.0,4.875975581092909e-05
809.0,5.4044971983752565e-05
810.0,5.4956550553010184e-05
811.0,5.324006750238679e-05
812.0,5.419043664905963e-05
813.0,5.721610168744664e-05
814.0,5.790463443656676e-05
815.0,5.626573254077379e-05
816.0,5.3613426810008265e-05
817.0,4.965678791365602e-05
818.0,4.659718112003069e-05
819.0,4.502131391253746e-05
820.0,4.421640943117168e-05
821.0,4.5045558023421965e-05
822.0,4.5292847954443985e-05
823.0,4.379456190178119e-05
824.0,4.3251493817968135e-05
825.0,4.646626292125433e-05
826.0,4.933191682780356e-05
827.0,5.013682130916934e-05
828.0,5.1116283388903594e-05
829.0,5.4209831937767234e-05
830.0,5.7187008754385224e-05
831.0,5.789978561438986e-05
832.0,5.8607713652217585e-05
833.0,6.156549518012796e-05
834.0,6.447478848626932e-05
835.0,6.516817005756633e-05
836.0,6.57209357857332e-05
837.0,6.612338802641608e-05
838.0,6.63609803130843e-05
839.0,7.057460678481236e-05
840.0,7.556404480484478e-05
841.0,7.684898268172388e-05
842.0,7.722234198934536e-05
843.0,7.941400961330517e-05
844.0,8.223117529808538e-05
845.0,8.166871192556472e-05
846.0,7.959826485602746e-05
847.0,8.220693118720088e-05
848.0,8.733698505036347e-05
849.0,8.960623382915372e-05
850.0,9.006687193595943e-05
851.0,9.192881965188989e-05
852.0,9.491084529068479e-05
853.0,9.791711504036419e-05
854.0,0.00010074882719167509
855.0,0.00010462303611102002
856.0,0.00010985491523989754
857.0,0.00011199809464208834
858.0,0.00011025251865840353
859.0,0.00010949610239880678
860.0,0.00011017978632574999
861.0,0.00011181383939936605
862.0,0.0001149170855925835
863.0,0.00011800578531927023
864.0,0.00012112357797901839
865.0,0.00012428985886053556
866.0,0.00012750462796382175
867.0,0.00013139338334969736
868.0,0.000137018017074904
869.0,0.00014147408465547718
870.0,0.00014233717500296576
871.0,0.00014320026535045438
872.0,0.00014405850687576607
873.0,0.00014490220193454708
874.0,0.00014571680406026664
875.0,0.00014725872951252156
876.0,0.00015279608443854393
877.0,0.00015768854601503832
878.0,0.00015839162523068913
879.0,0.0001588037751157258
880.0,0.00015702910619897959
881.0,0.00015577811007733884
882.0,0.00016104877978363158
883.0,0.000166188531291148
884.0,0.000169063882842051
885.0,0.0001718228626607084
886.0,0.0001722495590122758
887.0,0.00017274898769649674
888.0,0.00017800511093625876
889.0,0.00018330002475343602
890.0,0.00018384309283724909
891.0,0.0001843134285884086
892.0,0.00018714029191754263
893.0,0.00019011746873416063
894.0,0.00019306555261771718
895.0,0.00019594575299079712
896.0,0.00019658579751814822
897.0,0.00019710462149107676
898.0,0.0002042663318463614
899.0,0.00021205838908464332
900.0,0.00021337726871676073
901.0,0.00021405610382152707
902.0,0.00021473009010411644
903.0,0.00021539437874235206
904.0,0.00021816305620536329
905.0,0.0002212323606433424
906.0,0.00022440833916921338
907.0,0.00022771038707168384
908.0,0.00023096879557456214
909.0,0.0002341690182113176
910.0,0.00023527939848982826
911.0,0.00023599217534983288
912.0,0.00024072462579448946
