wavelength,intensity
90.60547,0.0
91.08759,7.72369854323196e-05
91.5697,0.00015652250125793688
92.05182,0.00017611130645862606
92.53394,0.000169713818966643
93.01605,0.00015539742904823023
93.49817,0.0001447379723274154
93.98029,0.00013712440023346524
94.4624,0.00012655071917695978
94.94452,0.00011050499682915484
95.42664,9.793355254754388e-05
95.90874,9.138007844612986e-05
96.39086,9.284161042669175e-05
96.87298,9.148258254694958e-05
97.35509,8.09031798802754e-05
97.83721,6.148170753291109e-05
98.31933,4.393268545031242e-05
98.80145,2.8001327422371895e-05
99.28356,1.6118988050897945e-05
99.76568,1.000809504250286e-05
100.2478,9.847836620734063e-06
100.7299,1.3361191344851723e-05
101.212,1.5365209550565427e-05
101.6941,7.89176356870557e-06
102.1763,8.548032255060581e-06
102.6584,2.142904958855585e-05
103.1405,4.22223991944311e-05
103.6226,6.867561406745036e-05
104.1047,9.7746484987959e-05
104.5868,0.00013088905735507777
105.069,0.0001866573007405014
105.5511,0.00026564335330847317
106.0332,0.0003466221263264865
106.5153,0.00041778460431202646
106.9974,0.0004837682492833042
107.4795,0.0005494476791512032
107.9617,0.0006280650272808433
108.4438,0.0007162524957410354
108.9259,0.0007914494847070887
109.408,0.0008535439863867167
109.8901,0.0009056402167375721
110.3722,0.0009538486614669875
110.8544,0.0010027538819432236
111.3365,0.0010314341802373829
111.8186,0.0010286693818321133
112.3007,0.0009995546290709036
112.7828,0.0009486866053774574
113.2649,0.0008734280363697575
113.7471,0.000774936820783648
114.2292,0.000672713466767977
114.7113,0.0005555974403181683
115.1934,0.0004444674787986325
115.6755,0.0003427641609614342
116.1576,0.0002528188489974497
116.6397,0.0001781407809807685
117.1219,0.00012453903983220658
117.604,9.986532330282175e-05
118.0861,7.296851878177077e-05
118.5682,3.818269997418853e-05
119.0503,5.506865532174017e-06
119.5324,1.9555692594043133e-05
120.0146,3.5548014863213856e-05
120.4967,4.4295222186835054e-05
120.9788,4.846869071329401e-05
121.4609,4.371560853027469e-05
121.943,4.051965770585705e-05
122.4251,4.185852903180983e-05
122.9073,4.3836795142942014e-05
123.3894,4.154793287844618e-05
123.8715,3.283816331085285e-05
124.3536,1.9938798034240183e-05
124.8357,8.697041409378964e-06
125.3178,1.1476871163397029e-06
125.8,9.016666069636008e-06
126.2821,2.6208174795487316e-05
126.7642,4.863000132947519e-05
127.2463,6.94811973839209e-05
127.7284,8.652664988815955e-05
128.2105,9.92818645302751e-05
128.6927,0.00010723373894750772
129.1748,0.00010655126722610873
129.6569,0.00010756074351511802
130.139,0.00012220593206534652
130.6211,0.00015279351456279016
131.1032,0.00018302306003069137
131.5854,0.0002024565089688326
132.0675,0.00021901320019763952
132.5496,0.00023956876356395952
133.0317,0.0002664239167025109
133.5138,0.0002989853577317279
133.9959,0.0003365650387847082
134.4781,0.00038203709920681047
134.9602,0.00042862710407001937
135.4423,0.00047061984365086366
135.9244,0.000513125637106246
136.4065,0.0005625831384284313
136.8886,0.0006232622689146217
137.3708,0.0006950612032991017
137.8529,0.0007706708270324093
138.335,0.0008403702214142909
138.8171,0.0009243804295690817
139.2992,0.0010280414593602043
139.7813,0.0011504553089204965
140.2635,0.0012893808526397937
140.7456,0.0014431103353473912
141.2277,0.0016138499711337798
141.7098,0.0017880584543055241
142.1919,0.0019820084320883082
142.674,0.0021653850682321397
143.1561,0.0023331320109709437
143.6383,0.002480009138178143
144.1204,0.002588546628432576
144.6025,0.0026381791722353476
145.0846,0.002618878435560188
145.5667,0.0025712906400694163
146.0488,0.0024774896901750246
146.531,0.0023646197773055295
147.0131,0.0022556507418773518
147.4952,0.0021519218285757525
147.9773,0.0020649814771794596
148.4594,0.0020159807349063386
148.9415,0.001995015397577849
149.4237,0.001992062949754333
149.9058,0.0020120740388784087
150.3879,0.002048145881699037
150.87,0.0020800438583897887
151.3521,0.002100345391962261
151.8342,0.002122388137578459
152.3164,0.002153251375616659
152.7985,0.0021931416659015986
153.2806,0.0022452912332964
153.7627,0.002309030940340651
154.2448,0.002384209503782432
154.7269,0.0024817629571595285
155.2091,0.002611400097116752
155.6912,0.002760186690497216
156.1733,0.0029241413694114644
156.6554,0.003102731248302258
157.1375,0.0032932526239237542
157.6196,0.0034963785127941085
158.1018,0.003720155535315889
158.5839,0.003932848635223489
159.066,0.004155322294344118
159.5481,0.004353610998210794
160.0302,0.004510590646423569
160.5123,0.00462013863121967
160.9945,0.004680191293880604
161.4766,0.004685900297111688
161.9587,0.004616871009954655
162.4408,0.004513187675581519
162.9229,0.0043574367189083705
163.405,0.004179389423219173
163.8871,0.003998258761507683
164.3693,0.003821914372167013
164.8514,0.003660732734655734
165.3335,0.0035414163127020473
165.8156,0.003473094953582841
166.2977,0.0034348649000112736
166.7798,0.0034330281661706626
167.262,0.003458475754719481
167.7441,0.0035009577404579747
168.2262,0.0035584410122473688
168.7083,0.0036242778348831296
169.1904,0.0036806095114055096
169.6725,0.0037332614167778382
170.1547,0.003770496492038706
170.6368,0.003780785207815875
171.1189,0.0037699815471235187
171.601,0.0037564067845570637
172.0831,0.0037432194428825426
172.5652,0.003736850514953181
173.0474,0.0037447880368567704
173.5295,0.0037658930202639548
174.0116,0.0038018121251860116
174.4937,0.0038552272351689842
174.9758,0.003926959740689641
175.4579,0.004013004029747642
175.9401,0.004116567113330792
176.4222,0.004232333712568768
176.9043,0.004353113024173226
177.3864,0.004476802113966044
177.8685,0.004607988937491005
178.3506,0.004755269486703323
178.8328,0.0049231109814745775
179.3149,0.00509448775249501
179.797,0.005272158294701063
180.2791,0.005446648009559067
180.7612,0.005609098098951824
181.2433,0.005757937544494015
181.7255,0.00589277844041149
182.2076,0.006015797907861678
182.6897,0.006139976243812144
183.1718,0.006222314093198122
183.6539,0.006265289204152006
184.136,0.006267335407110659
184.6181,0.0062254221882135155
185.1003,0.006137799122654716
185.5824,0.0060066530292360405
186.0645,0.0058411190889387735
186.5466,0.005623920948346614
187.0287,0.005386726265096909
187.5108,0.00512430800888296
187.993,0.004849166443276817
188.4751,0.004573720371637966
188.9572,0.004305672632876633
189.4393,0.004045799523423339
189.9214,0.0038022296087754427
190.4035,0.0035765295433783026
190.8857,0.003366038293621234
191.3678,0.003170596333254617
191.8499,0.002991128332667587
192.332,0.0028287170338522458
192.8141,0.0026844015394011035
193.2962,0.0025576533276968788
193.7784,0.0024443329592471496
194.2605,0.002341344461091963
194.7426,0.002250878531090845
195.2247,0.002173453508334505
195.7068,0.0021089578699128747
196.1889,0.0020570313483382107
196.6711,0.0020184521795699054
197.1532,0.001992863975177957
197.6353,0.001973534630451954
198.1174,0.001954086004700399
198.5995,0.0019455123173272003
199.0816,0.001953980300376942
199.5638,0.0019789047010128733
200.0459,0.0020158570899408276
200.528,0.002062708834225146
201.0101,0.002121750032579978
201.4922,0.0021918067851562973
201.9743,0.0022692541124946512
202.4565,0.0023618064906784906
202.9386,0.0024779435399307826
203.4207,0.002618171477286796
203.9028,0.002771434018418758
204.3849,0.002940712219201028
204.867,0.0031165877274371913
205.3492,0.0032874990115286423
205.8313,0.0034619979391487827
206.3134,0.0036169541738671367
206.7955,0.00372907930765026
207.2776,0.0038015992618924454
207.7597,0.0038150945037751997
208.2419,0.00375122436341439
208.724,0.003626651818220941
209.2061,0.003442877578658604
209.6882,0.0031918603580292043
210.1703,0.0028992412128864184
210.6524,0.002601922104407561
211.1346,0.00229291297054241
211.6167,0.0020031197189643232
212.0988,0.0017372709210602144
212.5809,0.0014959130390894216
213.063,0.0012793302140315108
213.5451,0.0010890866759207508
214.0273,0.0009234300604224089
214.5094,0.0007806962517653724
214.9915,0.0006667266260261558
215.4736,0.0005680821876592562
215.9557,0.0004824337079555554
216.4378,0.00040697934350835216
216.92,0.0003384204890789216
217.4021,0.0002757100415181617
217.8842,0.00021922422093877833
218.3663,0.00017108865400668186
218.8484,0.0001353358151970713
219.3305,0.00010337528870023774
219.8127,7.363896542417104e-05
220.2948,4.683268356434066e-05
220.7769,2.4006314947311646e-05
221.259,5.640634838390396e-06
221.7411,9.160351217204153e-06
222.2232,2.2998613327219113e-05
222.7054,3.4740744156625755e-05
223.1875,4.6819368698642885e-05
223.6696,6.098829138818952e-05
224.1517,7.505021511875845e-05
224.6338,8.674547723300315e-05
225.1159,9.513757621567674e-05
225.598,0.00010021584465799001
226.0802,0.00010180077916295404
226.5623,9.68589565766988e-05
227.0444,9.187519167861335e-05
227.5265,8.732709345312257e-05
228.0086,8.296911754518814e-05
228.4907,7.904060181746193e-05
228.9729,7.576129489100117e-05
229.455,7.196932199577652e-05
229.9371,6.456177635612294e-05
230.4192,5.3760491586633705e-05
230.9013,3.9412661905225916e-05
231.3834,1.7429154349563463e-05
231.8656,7.247335706106551e-06
232.3477,2.6801403944720422e-05
232.8298,3.786780776437615e-05
233.3119,4.404381560578485e-05
233.794,5.293885866875762e-05
234.2761,6.481750323773278e-05
234.7583,7.783421485984865e-05
235.2404,9.178728253254613e-05
235.7225,0.00010653546006581202
236.2046,0.00012170533966380312
236.6867,0.00013704167932712726
237.1688,0.0001533469591260618
237.651,0.00017288373646479283
238.1331,0.00019589517977549204
238.6152,0.00021878399637333736
239.0973,0.00023698662029009374
239.5794,0.00025442909435417717
240.0615,0.0002794441679648159
240.5437,0.00031488726401376595
241.0258,0.00035780855304148705
241.5079,0.00040508839983580385
241.99,0.00045648698165184665
242.4721,0.0005101552486406756
242.9542,0.00056164925527716
243.4364,0.0006146187585020756
243.9185,0.0006772248109213668
244.4006,0.0007485883210743612
244.8827,0.0008354879423643681
245.3648,0.0009434838191816413
245.8469,0.0010706776376439237
246.329,0.0012116532633796152
246.8112,0.0013668747286710457
247.2933,0.001533501108604768
247.7754,0.0017097097309244844
248.2575,0.001903924939280345
248.7396,0.0020917261256605995
249.2217,0.0022697884526985458
249.7039,0.002431920459356497
250.186,0.002549800175299168
250.6681,0.0026133667793917033
251.1502,0.0026213285454061773
251.6323,0.0025658628685245924
252.1144,0.0024320373159709605
252.5966,0.002253098806765648
253.0787,0.0020343427396080495
253.5608,0.0017918798110631408
254.0429,0.001558604915661244
254.525,0.0013502893324149514
255.0071,0.001166604796062887
255.4893,0.001004068397635382
255.9714,0.0008616410345399257
256.4535,0.000746808803335438
256.9356,0.0006623301989583585
257.4177,0.0006021645587407021
257.8998,0.0005564624701945276
258.382,0.0005210951612362026
258.8641,0.0004961421525494281
259.3462,0.0004821879211594082
259.8283,0.0004809255303056517
260.3104,0.0004894241094233301
260.7925,0.0005073632968312154
261.2747,0.0005323104869313775
261.7568,0.0005602057609150962
262.2389,0.0005882484390929927
262.721,0.0006196823835014146
263.2031,0.0006646993334739929
263.6852,0.000727147314290317
264.1674,0.0007983614807202628
264.6495,0.0008754916950882471
265.1316,0.0009586906952928421
265.6137,0.0010485437341708002
266.0958,0.0011453911990389396
266.5779,0.0012471204580747843
267.0601,0.0013498005711395198
267.5422,0.0014594751101944363
268.0243,0.0015575100516136992
268.5064,0.0016417137277733487
268.9885,0.0017152630869636904
269.4706,0.0017802101507299903
269.9528,0.001837388431604457
270.4349,0.001886616098755457
270.917,0.0019269432679185354
271.3991,0.0019544477268347957
271.8812,0.0019795835361176395
272.3633,0.001998061912551596
272.8455,0.0020179997844608005
273.3276,0.0020453267764853865
273.8097,0.002081553781615676
274.2918,0.0021242282655945933
274.7739,0.0021679617323369454
275.256,0.00220320733585863
275.7382,0.0022621282834234756
276.2202,0.002348062504218061
276.7024,0.0024496016894245713
277.1845,0.002559499759181843
277.6666,0.0026772587394523093
278.1487,0.0028068629074187294
278.6308,0.0029523605447166
279.1129,0.0031110804352086656
279.5951,0.0032958695332526286
280.0772,0.00349958164472417
280.5593,0.003729678137189107
281.0414,0.00398913812699293
281.5235,0.0042786210539516945
282.0056,0.004597157153630024
282.4878,0.004941119507039592
282.9699,0.0053090772267559965
283.452,0.005736384529917685
283.9341,0.006229737639950959
284.4162,0.006767859925143571
284.8983,0.00735412131690847
285.3805,0.007979764842394169
285.8626,0.008634210371610666
286.3447,0.00931807370497443
286.8268,0.010027165460124615
287.3089,0.01066075135633608
287.791,0.011275082579683066
288.2732,0.011762961369478617
288.7553,0.01211772544405167
289.2374,0.012318030288179502
289.7195,0.01232390221183573
290.2016,0.012108687239513924
290.6837,0.011686621513125467
291.1659,0.011111638481744044
291.648,0.01028838605726087
292.1301,0.009429043849315014
292.6122,0.008520326085141762
293.0943,0.007607103765166168
293.5764,0.006742670293934564
294.0586,0.005946677947729935
294.5407,0.005221114743644813
295.0228,0.0045685044936222725
295.5049,0.004000937735760421
295.987,0.0034988184401135254
296.4691,0.0030751681186376566
296.9513,0.002711022058034515
297.4334,0.0023892508241997574
297.9155,0.0021052393081854087
298.3976,0.0018564898816881457
298.8797,0.0016407042029961175
299.3618,0.0014705241212889437
299.844,0.0013162612681418867
300.3261,0.0011783059737401876
300.8082,0.001056573868577968
301.2903,0.0009512322370203311
301.7724,0.0008623397498156174
302.2545,0.0007862549415089732
302.7367,0.0007186570266585613
303.2188,0.0006608930080651246
303.7009,0.0006118316555147922
304.183,0.0005713328380466515
304.6651,0.0005370938500088915
305.1472,0.0005088344294796875
305.6294,0.0004866195506762098
306.1115,0.000469876422234701
306.5936,0.00045800403264633407
307.0757,0.00045050052881579963
307.5578,0.00044400281616941995
308.0399,0.0004365340299056721
308.5221,0.0004336678426286834
309.0042,0.0004401363168773363
309.4863,0.0004527324416638277
309.9684,0.0004643238420070432
310.4505,0.00047060374556123633
310.9326,0.00047165337009787037
311.4148,0.0004687589141875904
311.8969,0.0004583248792097797
312.379,0.00044970265512659036
312.8611,0.00044377613373264974
313.3432,0.00044066231710708666
313.8253,0.000441111705946442
314.3075,0.0004457504286584191
314.7896,0.0004539518234648751
315.2717,0.0004640020256791622
315.7538,0.00047550997779271316
316.2359,0.0004906392242608618
316.718,0.0005076905923281563
317.2001,0.0005283019656377324
317.6823,0.0005537083391980471
318.1644,0.0005846108526958806
318.6465,0.0006225140956527256
319.1286,0.0006693066843064853
319.6107,0.0007237652608219278
320.0928,0.0007938069820494986
320.575,0.0008833972147654684
321.0571,0.000985380067201165
321.5392,0.0010915576357021
322.0213,0.0012022426692986834
322.5034,0.0013281384580642087
322.9855,0.001477930212281944
323.4677,0.001653936153834666
323.9498,0.0018546861198383382
324.4319,0.0020950194456831515
324.914,0.002342717647532462
325.3961,0.0026023017671840125
325.8782,0.002858942651774184
326.3604,0.0030847377540859913
326.8425,0.0032642775172412397
327.3246,0.0033943049873837033
327.8067,0.0034354356063814946
328.2888,0.0033851795040467734
328.7709,0.0032645587489275
329.2531,0.0030515112001187686
329.7352,0.002776005003084924
330.2173,0.0024754100303433515
330.6994,0.002165400099580888
331.1815,0.0018579411341656926
331.6636,0.0015833746388697314
332.1458,0.001345165582020619
332.6279,0.0011399023323346864
333.11,0.0009766875836846325
333.5921,0.00084293573322809
334.0742,0.0007283241234326513
334.5563,0.0006301606882257004
335.0385,0.0005460816267959976
335.5206,0.0004740035942070149
336.0027,0.00041650892768550524
336.4848,0.0003659231539309765
336.9669,0.0003218839204621488
337.449,0.00028364974539173035
337.9312,0.00025091670454567273
338.4133,0.00022337277621689236
338.8954,0.0002011705528392964
339.3775,0.00018496544970653667
339.8596,0.00017530664441836914
340.3417,0.00016434132399463527
340.8239,0.0001476047414630653
341.306,0.00013432129613299802
341.7881,0.00012898017304047488
342.2702,0.0001295440910596486
342.7523,0.00013185280925095887
343.2344,0.00013342799762334733
343.7166,0.0001344677305627405
344.1987,0.00013595685234148893
344.6808,0.00013644813500445266
345.1629,0.00013923237718665172
345.645,0.00014790173182140058
346.1271,0.0001576807394113335
346.6093,0.00016366084029032882
347.0914,0.00016397194072119886
347.5735,0.0001595285285665074
348.0556,0.0001516878861300129
348.5377,0.00013723757174307412
349.0198,0.0001250904478901639
349.502,0.0001189291950146395
349.9841,0.00011206854802831873
350.4662,9.847046262719226e-05
350.9483,7.854626439652674e-05
351.4304,5.835819326299419e-05
351.9125,4.464103533566955e-05
352.3947,3.82878369854503e-05
352.8768,3.2676944822293025e-05
353.3589,2.9279826063400065e-05
353.841,2.5178347999801578e-05
354.3231,1.817864164226942e-05
354.8052,9.69076387513549e-06
355.2874,2.7936052578226436e-06
355.7695,1.5100686905526702e-07
356.2516,1.4061584313016546e-09
356.7337,1.8984351028116564e-06
357.2158,8.397170850670621e-06
357.6979,1.3488152904731732e-05
358.18,1.57024402841468e-05
358.6621,1.6237148998526876e-05
359.1443,1.5875868106948065e-05
359.6264,1.4950586766218513e-05
360.1085,1.4532186749395796e-05
360.5906,1.7469181376633793e-05
361.0727,2.690897991353718e-05
361.5548,3.1309441201385635e-05
362.037,2.3491292450969795e-05
362.5191,1.516433254542072e-05
363.0012,1.519281937571002e-05
363.4833,2.339414629865556e-05
363.9654,3.1537394029566164e-05
364.4475,2.9218856973347696e-05
364.9297,1.53256237663132e-05
365.4118,1.0035025400873375e-05
365.8939,2.1713529985674708e-05
366.376,3.3182575150078214e-05
366.8581,3.830455572431627e-05
367.3402,3.8107232905827226e-05
367.8224,3.489382147275056e-05
368.3045,2.88458176879899e-05
368.7866,2.160069789361819e-05
369.2687,1.875640789758039e-05
369.7508,2.3155535759330198e-05
370.2329,2.5287994415687866e-05
370.7151,2.00076076697526e-05
371.1972,1.2208917242732672e-05
371.6793,6.08862721695875e-06
372.1614,2.778292677387986e-06
372.6435,2.359596882412476e-06
373.1256,6.831161298663031e-06
373.6078,1.6748544575880402e-05
374.0899,2.227302103020093e-05
374.572,1.8664590600838566e-05
375.0541,1.180028760259641e-05
375.5362,5.4345792911607575e-06
376.0183,2.6797985040203485e-07
376.5005,5.322712114717446e-06
376.9826,8.678766198594221e-06
377.4647,1.099485944843553e-05
377.9468,1.4190883005185822e-05
378.4289,1.887811818304281e-05
378.911,2.3359225081337508e-05
379.3932,2.4704458061986388e-05
379.8753,2.478281017954295e-05
380.3574,2.815285311540009e-05
380.8395,3.9416065778394094e-05
381.3216,5.195251126153217e-05
381.8037,5.666212375373556e-05
382.2859,5.3364585255889636e-05
382.768,5.044564279361624e-05
383.2501,5.083340310310312e-05
383.7322,5.4348799181357256e-05
384.2143,6.0232796404806376e-05
384.6964,6.878791278906741e-05
385.1786,7.853811837526955e-05
385.6607,8.85157337215684e-05
386.1428,9.898579544815345e-05
386.6249,0.00011116666710341491
387.107,0.00012587779963524928
387.5891,0.00014070995876861914
388.0713,0.00015206071206719495
388.5534,0.00016030264302704984
389.0355,0.00017033180135308918
389.5176,0.00018273213070007724
389.9997,0.0001976257728986502
390.4818,0.00021591553014992554
390.964,0.0002374892976851732
391.4461,0.000259261624488565
391.9282,0.0002780961953996371
392.4103,0.00029566338117011044
392.8924,0.00032005193846727163
393.3745,0.00035397192249401316
393.8567,0.00039107244293947195
394.3388,0.00042854705001587874
394.8209,0.00046746355134303096
395.303,0.0005111754408266959
395.7851,0.0005621341374948502
396.2672,0.0006136291138957699
396.7494,0.0006545211708424574
397.2315,0.0006829052061016078
397.7136,0.0007034724551293741
398.1957,0.0007179452195629919
398.6778,0.0007237885351683768
399.1599,0.0007161865517594295
399.642,0.0006963020168941712
400.1241,0.0006715890249051532
400.6063,0.0006472687875124646
401.0884,0.0006229175176578438
401.5705,0.000611580001643811
402.0526,0.0006168109110082531
402.5347,0.000628965453559094
403.0168,0.0006450751803596341
