wavelength,intensity
206.0,0.0
207.0,0.0002309009120640855
208.0,0.00041590772222379116
209.0,0.0005131314556928582
210.0,0.0006060882256462514
211.0,0.0004965581814922064
212.0,0.00038544257248631427
213.0,0.0002836463997044282
214.0,0.00017749113578550713
215.0,8.342398555360333e-05
216.0,5.842830723167221e-05
217.0,2.5398130562614027e-05
218.0,2.7812844006711346e-05
219.0,3.514911196036446e-05
220.0,4.051675811019526e-05
221.0,4.181624245360507e-05
222.0,3.420359163586852e-05
223.0,3.291865375898943e-05
224.0,2.5815129269827616e-05
225.0,2.1174806446532157e-05
226.0,1.347002800743447e-05
227.0,6.502270539225927e-06
228.0,2.1383305800138955e-06
229.0,2.1722723352522113e-06
230.0,8.432101765633026e-06
231.0,1.4633745329891011e-05
232.0,1.551138214391032e-05
233.0,1.338274920825023e-05
234.0,1.060922292306214e-05
235.0,6.361654696095762e-06
236.0,2.051051780829655e-06
237.0,2.3225858227361814e-06
238.0,6.739862825894137e-06
239.0,1.563260269833288e-05
240.0,2.8317121513109182e-05
241.0,4.3940026567088254e-05
242.0,7.310084313897844e-05
243.0,0.00010229075264393002
244.0,0.00015323732725664206
245.0,0.00020922182811115552
246.0,0.00028471314058334675
247.0,0.0003839442864336515
248.0,0.0004874860351992223
249.0,0.0006341095690065697
250.0,0.0007807670445691553
251.0,0.0008524520316324783
252.0,0.0008963969070217435
253.0,0.0008785386949442124
254.0,0.0007559022844460005
255.0,0.0006331301069268354
256.0,0.0005021100828847594
257.0,0.0003710658147317991
258.0,0.00029543388641647766
259.0,0.0002487154847420244
260.0,0.00021572409865038144
261.0,0.000214555532505748
262.0,0.0002135469774929523
263.0,0.0002536758298289954
264.0,0.0002961272679877747
265.0,0.0003582406800738926
266.0,0.0004337077484351993
267.0,0.0005076377401664281
268.0,0.0005768692232082385
269.0,0.0006460279739173954
270.0,0.000646939552486653
271.0,0.0006396081333551768
272.0,0.0006074701399666686
273.0,0.0005546082805940801
274.0,0.0005052424220110383
275.0,0.00046919627794794695
276.0,0.0004331355874183249
277.0,0.0004390366040076149
278.0,0.00045239026028280377
279.0,0.0004929458089704142
280.0,0.0005603153442962942
281.0,0.0006416155457364144
282.0,0.000796108717936874
283.0,0.0009506503783591028
284.0,0.0012285703190726095
285.0,0.001534375836125481
286.0,0.0019210500094447285
287.0,0.002397340114237483
288.0,0.002862390649224179
289.0,0.003255605883660068
290.0,0.003649015070983032
291.0,0.003624363659035661
292.0,0.0034911519673696254
293.0,0.003182762028096465
294.0,0.002665256934800041
295.0,0.00216003390807771
296.0,0.001747796744241834
297.0,0.0013354965457176582
298.0,0.0010724479426207105
299.0,0.000850682211537909
300.0,0.000678883592988085
301.0,0.0005689317013046495
302.0,0.0004656760330475159
303.0,0.0004139245539534381
304.0,0.0003621730748593603
305.0,0.00033316257177495406
306.0,0.00031048947927575916
307.0,0.0002934458693239477
308.0,0.0002832536451080992
309.0,0.0002728092821390517
310.0,0.0002605320643871352
311.0,0.0002482499978130418
312.0,0.0002326707321586548
313.0,0.00021622837615677929
314.0,0.00020548823503494076
315.0,0.00019323041257173187
316.0,0.00018163202992458168
317.0,0.00017667653365978754
318.0,0.00017117796931118037
319.0,0.00017867424839667126
320.0,0.00018871615912503586
321.0,0.00021255781776886428
322.0,0.00025084411767768445
323.0,0.0002959769545002907
324.0,0.00037888211608096546
325.0,0.00046114723313428924
326.0,0.0005889621857174327
327.0,0.0007246952649154575
328.0,0.0008139038953261053
329.0,0.0008612865856387941
330.0,0.0008746790324913982
331.0,0.0007586224736872428
332.0,0.0006424495431508416
333.0,0.0005187172988406496
334.0,0.0003939425577624239
335.0,0.0003037156746946267
336.0,0.000239308769718834
337.0,0.00018329032710908224
338.0,0.00015179722707010207
339.0,0.00011992591890132354
340.0,0.00010184466100365502
341.0,8.481559751837429e-05
342.0,7.462337330252574e-05
343.0,6.866417084711287e-05
344.0,6.371352340449567e-05
345.0,6.0474510190324955e-05
346.0,5.739550810799202e-05
347.0,6.072180012134697e-05
348.0,6.419840562218589e-05
349.0,6.198249388734155e-05
350.0,5.7434298685407244e-05
351.0,5.139266625298703e-05
352.0,4.303329682000754e-05
353.0,3.511517020512615e-05
354.0,2.9286885948489634e-05
355.0,2.3458601691853122e-05
356.0,1.9254672864478865e-05
357.0,1.5521079788264126e-05
358.0,1.1782637889872486e-05
359.0,8.034498347127041e-06
360.0,4.64032282329546e-06
361.0,2.996572105325595e-06
362.0,1.3479725651788277e-06
363.0,3.054757971448422e-07
364.0,1.9637729816454144e-06
365.0,3.6269189883228888e-06
366.0,5.290064995000363e-06
367.0,6.40044527351098e-06
368.0,5.978597744120484e-06
369.0,5.561599036906889e-06
370.0,5.144600329693295e-06
371.0,4.727601622479701e-06
372.0,5.721610168744663e-06
373.0,7.4283955750142586e-06
374.0,8.35452061080259e-06
375.0,7.961766014473507e-06
376.0,7.573860240321326e-06
377.0,7.1908032883460484e-06
378.0,6.817443980724573e-06
379.0,6.4440846731031e-06
380.0,6.070725365481626e-06
381.0,4.669415756356874e-06
382.0,2.1916676239598206e-06
383.0,2.8123168626033093e-07
384.0,2.7541309964804818e-06
385.0,5.222181484523731e-06
386.0,5.765249568336784e-06
387.0,6.114364765073746e-06
388.0,1.1695359090688244e-05
389.0,2.051051780829655e-05
390.0,2.7924366916780103e-05
391.0,3.2496806229598926e-05
392.0,3.762686009276151e-05
393.0,5.491291115341806e-05
394.0,7.219896221407461e-05
395.0,9.430474251857202e-05
396.0,0.00011795244827532432
397.0,0.00014160015403207662
398.0,0.00016525270861100585
399.0,0.00018607839986080102
400.0,0.00019485476800099413
401.0,0.0002036311361411872
402.0,0.0002181921491384247
403.0,0.00023334471844124426
404.0,0.00028451433887409375
405.0,0.00035712060215102815
406.0,0.0004289801468127196
407.0,0.000499457777153994
408.0,0.000561857269748549
409.0,0.0005152746350950491
410.0,0.000468696849263726
411.0,0.00040353837685051347
412.0,0.0003335068381495142
413.0,0.00030194585460005736
414.0,0.0003064843521576379
415.0,0.0003120459511945448
416.0,0.0003208514122677993
417.0,0.0003296568733410538
418.0,0.00028276876289040897
419.0,0.00023397991414641844
420.0,0.00018219934211927922
421.0,0.00012909989046002262
422.0,8.951895502996947e-05
423.0,6.837809033867564e-05
424.0,4.917190569596579e-05
425.0,4.0797989796455595e-05
426.0,3.239982978606089e-05
427.0,2.5873315135950448e-05
428.0,1.957469512815441e-05
429.0,1.58992879180625e-05
430.0,1.3853084959409751e-05
431.0,1.2548751793823042e-05
432.0,1.262633294865348e-05
433.0,1.2708762925660817e-05
434.0,1.2786344080491253e-05
435.0,1.286877405749859e-05
436.0,1.4706477662544546e-05
437.0,1.6941784686096488e-05
438.0,1.7989130276307374e-05
439.0,1.8095804364199225e-05
440.0,1.8207327274267976e-05
441.0,1.832854782869053e-05
442.0,1.8527349537943525e-05
443.0,2.0811144783264487e-05
444.0,2.3099788850762355e-05
445.0,2.70661253914684e-05
446.0,3.153189061639538e-05
447.0,3.490667085151935e-05
448.0,3.726804725167075e-05
449.0,4.129256965849962e-05
450.0,5.00592401543389e-05
451.0,5.8811364183647475e-05
452.0,6.969212114861615e-05
453.0,8.0563180469231e-05
454.0,9.47168924036087e-05
455.0,0.00011007311223785814
456.0,0.00012228729530147493
457.0,0.00013120912810697508
458.0,0.00013750774811477112
459.0,0.00013560216099924854
460.0,0.0001336044462623648
461.0,0.00014000489153587577
462.0,0.0001464635226755096
463.0,0.00015768854601503832
464.0,0.0001705864130055983
465.0,0.00019088358263811116
466.0,0.0002188612865988372
467.0,0.0002520757185106177
468.0,0.0003016452276250894
469.0,0.0003512098879173843
470.0,0.0004438223914962174
471.0,0.0005365512668072962
472.0,0.0006974642795699746
473.0,0.0008809485595661328
474.0,0.0011433425716691984
475.0,0.0014824788923660961
476.0,0.0018405159219085589
477.0,0.00225121116029218
478.0,0.0026544537589899024
479.0,0.0027257072008794814
480.0,0.0027969315498359982
481.0,0.0025312306410082853
482.0,0.002171603197791799
483.0,0.001810647177298841
484.0,0.0014485953229939033
485.0,0.0011327139534574287
486.0,0.0009224253844673547
487.0,0.0007199676632929779
488.0,0.0006266617781428478
489.0,0.000533486811191494
490.0,0.0004873357217117383
491.0,0.0004507756024978952
492.0,0.0004374801320888293
493.0,0.0004399481825768725
494.0,0.00045576988934010456
495.0,0.0004951326277721971
496.0,0.000542413492819171
497.0,0.0006426386472157407
498.0,0.000742878348078841
499.0,0.0009291119102493031
500.0,0.0011251206979283998
501.0,0.0014505881889086102
502.0,0.0018403510619545442
503.0,0.0023411277187406557
504.0,0.002983790610067281
505.0,0.0036029027720806918
506.0,0.00413450339144537
507.0,0.004666099161987873
508.0,0.0045048418828506345
509.0,0.004333023869012103
510.0,0.0037918565234923954
511.0,0.0031340653069738354
512.0,0.0025401379273472546
513.0,0.002001715015179674
514.0,0.0015381191268460494
515.0,0.0012394995642593472
516.0,0.0009532396494015687
517.0,0.0007919629749756226
518.0,0.0006306814517274997
519.0,0.0005359063734577681
520.0,0.00045106653182850937
521.0,0.00038749847308932077
522.0,0.00033537848350979844
523.0,0.00028987228737957076
524.0,0.00025305518059035194
525.0,0.00021904554184155946
526.0,0.00019532995257433053
527.0,0.00017160951448492472
528.0,0.00015662180513611982
529.0,0.00014164864225384564
530.0,0.00012667063054939458
531.0,0.0001116877700227666
532.0,0.00010045304903888406
533.0,9.204519138413555e-05
534.0,8.285667335890578e-05
535.0,7.223290396931293e-05
536.0,6.222008617400977e-05
537.0,5.5945710277098246e-05
538.0,4.966163673583293e-05
539.0,4.542861497539725e-05
540.0,4.134105788026865e-05
541.0,3.5663087111116105e-05
542.0,2.938386239202768e-05
543.0,2.538843291826022e-05
544.0,2.352163638015285e-05
545.0,2.098570238163297e-05
546.0,1.694663350827339e-05
547.0,1.3140308099405117e-05
548.0,1.1302604494359162e-05
549.0,9.47459853366701e-06
550.0,7.64659257297486e-06
551.0,5.828284256636513e-06
552.0,4.009975940298167e-06
553.0,2.1965164461367228e-06
554.0,3.782081297983761e-07
555.0,1.4304025421861658e-06
556.0,2.5844222202889034e-06
557.0,2.1916676239598206e-06
558.0,1.7989130276307376e-06
559.0,1.4061584313016545e-06
560.0,1.0134038349725717e-06
561.0,2.6038175089965126e-06
562.0,4.412428180981054e-06
563.0,4.620927534587851e-06
564.0,4.111801206013114e-06
565.0,3.670558387915009e-06
566.0,3.2584085028783174e-06
567.0,2.128632935660091e-06
568.0,5.770098390513686e-07
569.0,3.3650825907701663e-06
570.0,6.279224719088423e-06
571.0,9.062448648630319e-06
572.0,1.7877607366238624e-05
573.0,2.7240682989836884e-05
574.0,3.829599755317403e-05
575.0,4.998650782168537e-05
576.0,6.286013070136087e-05
577.0,7.674230859383202e-05
578.0,8.750669382655505e-05
579.0,9.250582949094126e-05
580.0,9.533269282007529e-05
581.0,8.702181160886481e-05
582.0,7.870123275330055e-05
583.0,6.388323218068724e-05
584.0,4.89876504532435e-05
585.0,3.771898771412266e-05
586.0,2.7230985345483075e-05
587.0,1.935164930801691e-05
588.0,1.320819160988175e-05
589.0,8.000556591888725e-06
590.0,4.111801206013114e-06
591.0,8.242997700733839e-07
592.0,7.418697930660453e-07
593.0,2.1868188017829184e-06
594.0,1.5467742744318202e-06
595.0,9.164273914345267e-07
596.0,2.2498534900826474e-06
597.0,3.859662452814197e-06
598.0,3.917848318937024e-06
599.0,3.3165943690011443e-06
600.0,2.7298868855959708e-06
601.0,2.2110629126674294e-06
602.0,1.7455759836848127e-06
603.0,1.280089054702196e-06
604.0,8.194509478964816e-07
605.0,3.636616632676693e-07
606.0,9.212762136114289e-08
607.0,5.333704394592483e-07
608.0,9.649156132035493e-07
609.0,1.3916119647709477e-06
610.0,1.8231571385152488e-06
611.0,2.2498534900826474e-06
612.0,2.6765498416500465e-06
613.0,3.1032461932174447e-06
614.0,3.5299425447848434e-06
615.0,3.956638896352242e-06
616.0,4.3784864257427385e-06
617.0,5.125205040985686e-06
618.0,7.787208416105026e-06
619.0,1.0444362969047463e-05
620.0,1.31063663441668e-05
621.0,1.576836971928614e-05
622.0,2.0238983766390024e-05
623.0,2.51411429872382e-05
624.0,3.0052999852440195e-05
625.0,3.497940318417289e-05
626.0,4.204898591809638e-05
627.0,5.144115447475605e-05
628.0,6.154125106924345e-05
629.0,7.317357547163196e-05
630.0,8.515501507075745e-05
631.0,9.903719296322861e-05
632.0,0.00011291937085569977
633.0,0.00011337031131815168
634.0,0.00011378246120318838
635.0,0.00010854573325213394
636.0,0.00010221317148909958
637.0,9.588060972606525e-05
638.0,8.954319914085399e-05
639.0,8.67357311004276e-05
640.0,8.714303216328738e-05
641.0,8.920378158847082e-05
642.0,9.410594080931902e-05
643.0,9.949298224785741e-05
644.0,0.00010664984378096516
645.0,0.00011340425307339
646.0,0.00011380670531407288
647.0,0.00011420915755475576
648.0,0.0001084730009194804
649.0,0.00010211134622338465
650.0,9.062448648630319e-05
651.0,7.748417838689807e-05
652.0,6.57160869635563e-05
653.0,5.483048117641073e-05
654.0,4.601047363662553e-05
655.0,3.962942365182215e-05
656.0,3.324837366701878e-05
657.0,2.6862474860038506e-05
658.0,2.1213597023947378e-05
659.0,1.934680048584001e-05
660.0,1.743636454814052e-05
661.0,1.3300319231242892e-05
662.0,9.159425092168365e-06
663.0,8.907286338969447e-06
664.0,9.169122736522168e-06
665.0,9.445505600605598e-06
666.0,9.736434931219733e-06
667.0,1.0041910728364575e-05
668.0,1.0361932992040125e-05
669.0,8.582415253116996e-06
670.0,4.208777649551159e-06
671.0,1.9249824042301964e-06
672.0,4.35909113703513e-06
673.0,6.041632432420213e-06
674.0,3.976034185059851e-06
675.0,1.9637729816454144e-06
676.0,5.818586612282709e-08
677.0,1.8425524272228578e-06
678.0,3.2487108585245125e-07
679.0,2.9529327057334747e-06
680.0,2.123784113483189e-06
681.0,2.0365053142989484e-07
682.0,2.860805084372332e-07
683.0,6.303468829972935e-08
684.0,4.1214988503669193e-07
685.0,7.564162595967522e-07
686.0,1.0958338119799103e-06
687.0,1.4304025421861658e-06
688.0,1.7649712723924217e-06
689.0,2.094691180421775e-06
690.0,2.1868188017829184e-06
691.0,2.3274346449130836e-07
692.0,1.7213318728003012e-06
693.0,7.70962726127459e-07
694.0,3.3650825907701663e-06
695.0,4.014824762475069e-06
696.0,4.325149381796814e-06
697.0,2.977176816617986e-06
698.0,9.98857368441865e-07
699.0,3.5881284109076705e-07
700.0,5.479169059899551e-07
701.0,6.545909938818048e-07
702.0,7.90358014835068e-07
703.0,9.552179688497447e-07
704.0,1.0327991236801808e-06
705.0,1.018252657149474e-06
706.0,9.940085462649627e-07
707.0,1.2509961216407825e-06
708.0,3.5638843000231593e-06
709.0,5.9058654114669494e-06
710.0,5.99314421065119e-06
711.0,6.085271832012332e-06
712.0,6.201643564257987e-06
713.0,6.342259407388153e-06
714.0,8.238148878556936e-06
715.0,1.0711048188777087e-05
716.0,1.3193645143351043e-05
717.0,1.5690788564455705e-05
718.0,1.6980575263511706e-05
719.0,1.7198772261472307e-05
720.0,1.8381884872636457e-05
721.0,2.0908121226802536e-05
722.0,2.203789679402076e-05
723.0,1.9972298546660397e-05
724.0,1.7906700299300036e-05
725.0,1.5841102051939676e-05
726.0,1.3969456691655402e-05
727.0,1.4202200156146711e-05
728.0,1.4430094798461118e-05
729.0,1.2417833595046682e-05
730.0,1.0342537703332514e-05
731.0,8.267241811618349e-06
732.0,6.187097097727281e-06
733.0,7.607801995559641e-06
734.0,1.0129189527548816e-05
735.0,1.1142593362521387e-05
736.0,1.1355941538305087e-05
737.0,1.1569289714088786e-05
738.0,1.1777789067695582e-05
739.0,1.3023936367159463e-05
740.0,1.5540475076971737e-05
741.0,1.7252109305418232e-05
742.0,1.7455759836848126e-05
743.0,1.765456154610112e-05
744.0,1.7858212077531013e-05
745.0,1.8401280161344067e-05
746.0,2.0927516515510143e-05
747.0,2.3565275779744973e-05
748.0,2.8399551490116524e-05
749.0,3.322897837831117e-05
750.0,3.805840526650582e-05
751.0,4.288783215470047e-05
752.0,4.969072966889433e-05
753.0,5.683304473547136e-05
754.0,6.749075588030253e-05
755.0,7.92588473036443e-05
756.0,9.874141481043757e-05
757.0,0.00012209334241439885
758.0,0.00015209785404507
759.0,0.0001870578619405353
760.0,0.00022313309893668809
761.0,0.00026041084383271267
762.0,0.00028771456151084927
763.0,0.00029948750175636793
764.0,0.0003000451163067117
765.0,0.0002747003227880436
766.0,0.00024744994215385294
767.0,0.00021288268885471672
768.0,0.00018007555800579603
769.0,0.00015942927317654624
770.0,0.00013912725472185647
771.0,0.00012766463909565955
772.0,0.00011618262818075498
773.0,0.00011583351298401803
774.0,0.00011608080291504005
775.0,0.00011023312336969593
776.0,0.00010348841172162487
777.0,9.672915360702314e-05
778.0,8.991170962629856e-05
779.0,7.972918305480383e-05
780.0,6.825202096207617e-05
781.0,5.9727791575082004e-05
782.0,5.289095230564982e-05
783.0,4.857065174602991e-05
784.0,4.626261238982444e-05
785.0,4.38285036570195e-05
786.0,4.152046430081403e-05
787.0,3.93045525659697e-05
788.0,3.705469907588705e-05
789.0,3.4727264430973965e-05
790.0,3.2361039208645666e-05
791.0,3.058152146972254e-05
792.0,3.058152146972254e-05
793.0,3.09306366664595e-05
794.0,3.322412955613427e-05
795.0,3.5299425447848435e-05
796.0,3.531397191437914e-05
797.0,3.528972780349463e-05
798.0,3.2981688447289155e-05
799.0,3.054273089230732e-05
800.0,3.245316683000681e-05
801.0,3.471271796444326e-05
802.0,3.705469907588705e-05
803.0,3.941122665386155e-05
804.0,4.373637603565836e-05
805.0,4.845428001378426e-05
806.0,5.4874120576002846e-05
807.0,6.180308746679618e-05
808.0,7.520523196375401e-05
809.0,9.154091387773772e-05
810.0,0.00011082467967527801
811.0,0.0001318879632117414
812.0,0.0001529657932147355
813.0,0.00017405816968426031
814.0,0.0001857632264193024
815.0,0.00018806156813115405
816.0,0.00018011919740538814
817.0,0.00015899287918062503
818.0,0.00013699377296401947
819.0,0.00011354002009434326
820.0,9.233612071474968e-05
821.0,7.594225293464316e-05
822.0,6.140063522611329e-05
823.0,5.2052106069045734e-05
824.0,4.3668492525181734e-05
825.0,3.9033018524063174e-05
826.0,3.4761206186212284e-05
827.0,3.250650387395273e-05
828.0,3.0251801561693182e-05
829.0,2.7997099249433636e-05
830.0,2.573269929282028e-05
831.0,2.344890404749932e-05
832.0,2.1160259980001452e-05
833.0,2.1213597023947378e-05
834.0,2.1291178178777813e-05
835.0,1.914314995441011e-05
836.0,1.6844808242558442e-05
837.0,1.6655704177659253e-05
838.0,1.6723587688135887e-05
839.0,1.678177355425871e-05
840.0,1.6830261776027738e-05
841.0,1.5002255815335584e-05
842.0,1.269421645913011e-05
843.0,1.0386177102924635e-05
844.0,8.073288924542259e-06
845.0,9.091541581691733e-06
846.0,1.1525650314496664e-05
847.0,1.0832268743199643e-05
848.0,8.514531742640364e-06
849.0,7.656290217328663e-06
850.0,7.709627261274589e-06
851.0,6.405294095687882e-06
852.0,4.0778594507747984e-06
853.0,3.0208162162101064e-06
854.0,3.069304437979129e-06
855.0,3.1177926597481518e-06
856.0,3.1662808815171743e-06
857.0,3.2099202811092945e-06
858.0,3.2584085028783174e-06
859.0,3.3020479024704377e-06
860.0,3.3456873020625575e-06
861.0,3.3844778794777756e-06
862.0,3.428117279069896e-06
863.0,3.466907856485114e-06
864.0,3.505698433900332e-06
865.0,3.539640189138648e-06
866.0,3.578430766553866e-06
867.0,3.6123725217921817e-06
868.0,3.6511630992073998e-06
869.0,3.6802560322688134e-06
870.0,3.7141977875071293e-06
871.0,3.2293155698169038e-06
872.0,8.727879918424063e-07
873.0,1.0424967680339854e-06
874.0,1.0134038349725717e-06
875.0,9.891597240880605e-07
876.0,9.649156132035493e-07
877.0,6.303468829972935e-07
878.0,1.7843665611000307e-06
879.0,3.689953676622618e-06
880.0,1.3140308099405118e-06
881.0,8.67939169665504e-07
882.0,8.533927031347973e-07
883.0,8.436950587809927e-07
884.0,8.291485922502861e-07
885.0,8.194509478964816e-07
886.0,8.09753303542677e-07
887.0,8.049044813657747e-07
888.0,7.952068370119702e-07
889.0,7.90358014835068e-07
890.0,7.90358014835068e-07
891.0,7.855091926581657e-07
892.0,7.855091926581657e-07
893.0,7.806603704812635e-07
894.0,7.806603704812635e-07
895.0,7.806603704812635e-07
896.0,7.806603704812635e-07
897.0,7.806603704812635e-07
898.0,7.806603704812635e-07
899.0,7.855091926581657e-07
900.0,1.3916119647709477e-06
901.0,3.7966277645144676e-06
902.0,1.915284759876392e-06
903.0,4.945798620440303e-07
904.0,7.90358014835068e-07
905.0,7.90358014835068e-07
906.0,1.2946355212329028e-06
907.0,3.704500143153325e-06
908.0,4.053615339890287e-06
909.0,4.048766517713385e-06
910.0,2.0074123812375347e-06
911.0,4.073010628597897e-07
912.0,8.000556591888725e-07
