wavelength,intensity
126.749,0.0
127.979,0.0005664030405393949
129.209,0.00045953955765331547
130.439,0.00015103324664790936
131.668,0.0011739832487694792
132.898,0.00034693700883865454
134.127,0.0010304125334047096
135.356,0.001434512888745526
136.585,0.0024568278891148087
137.814,0.005970994790947101
139.043,0.007866350891676423
140.271,0.011208561588238143
141.5,0.01493409592199487
142.728,0.018939877631110016
143.956,0.022637870654901936
145.184,0.026733869549440528
146.412,0.030287542229959132
147.639,0.036307194951451446
148.867,0.04194477503187039
150.094,0.04722879839443834
151.321,0.051098294258627296
152.549,0.05402514030104903
153.775,0.05075300963141008
155.002,0.044315335101224845
156.229,0.03419188657913348
157.455,0.023528681718775892
158.681,0.014373785426520753
159.908,0.00813654180983995
161.134,0.006715133832791937
162.359,0.00432174938768637
163.585,0.0044635963467672506
164.811,0.005677801060376351
166.036,0.005914680570184558
167.261,0.007270202751492822
168.486,0.007393789531137707
169.711,0.008943584621785738
170.936,0.01086335939099794
172.161,0.01224246139455248
173.385,0.014036574088228086
174.61,0.016438632106443692
175.834,0.020530897407906073
177.058,0.02427885754423097
178.282,0.02915446946366061
179.505,0.03328264029334295
180.729,0.0381713488814724
181.952,0.041842232140473265
183.176,0.04535022406726327
184.399,0.04940687961865847
185.622,0.051387526501479514
186.845,0.052579463969005626
188.067,0.05111613792423829
189.29,0.04959064997916308
190.512,0.04540200948811259
191.734,0.04036007327037084
192.956,0.033990805923457344
194.178,0.029283511168254513
195.4,0.025263415736073148
196.622,0.021620185309947162
197.843,0.020758898724308368
199.064,0.019023631336571648
200.286,0.020730363405797297
201.507,0.019674217203335332
202.727,0.020946456014933123
203.948,0.02062448452474246
205.169,0.021409130627053137
206.389,0.023300408868331686
207.609,0.0245722015882892
208.829,0.02608752640208163
210.049,0.027875791416211895
211.269,0.028065031248132036
212.489,0.025709332818749785
213.708,0.02333961644445412
214.928,0.01822100095280684
216.147,0.01336446914864331
217.366,0.01002241361439125
218.585,0.005889277590799767
219.803,0.0042346553286270695
221.022,0.002659839345781788
222.24,0.001185716913555365
223.459,0.0011207359080338273
224.677,0.00016506355605788487
225.895,0.00038074619727865376
227.112,0.001285364088348448
228.33,0.0007019426517325615
229.548,0.000579761060754543
230.765,0.002237702826589548
231.982,0.001054803563601181
233.199,0.0010903362173957383
234.416,0.0012438741716273485
235.633,0.0014437038311818442
236.849,0.0012110878907137883
238.066,0.00036109993353516836
239.282,0.0005201830977847273
240.498,0.0009445922599312812
241.714,0.0011627228290280592
242.93,0.002138846494693518
244.146,0.003268948872526467
245.361,0.004642941187270987
246.577,0.005347746583616792
247.792,0.0069970395053348565
249.007,0.008629235480057163
250.222,0.010982039162599799
251.437,0.012791032891536318
252.651,0.015125648642093393
253.866,0.01607712332022257
255.08,0.01648932169348103
256.294,0.015378446835108368
257.508,0.013403056075527098
258.722,0.0113204821017254
259.936,0.01033509476129097
261.149,0.01019168599658691
262.363,0.010071217009601771
263.576,0.01176136125816024
264.789,0.01262711360902396
266.002,0.014724364967555139
267.215,0.016855451407236745
268.427,0.018487007337431697
269.64,0.020205749939189534
270.852,0.02223472988146993
272.064,0.021204035146614526
273.276,0.02067788945219886
274.488,0.018660779426607522
275.7,0.016343920062862262
276.912,0.013229012452309367
278.123,0.012044653693845752
279.334,0.011428227779318345
280.545,0.012470399676266479
281.756,0.014016883021367684
282.967,0.015088419385419138
284.178,0.017969371325936498
285.388,0.02105986996565087
286.598,0.024595223795985135
287.809,0.028743720888233043
289.019,0.03298175633079963
290.229,0.0390845275620484
291.438,0.04174571148621985
292.648,0.04363565145257758
293.857,0.04284045431320995
295.067,0.040175289506031275
296.276,0.03386416923466319
297.485,0.0274717875524324
298.693,0.02166553634376773
299.902,0.015660250682385576
301.111,0.012271724036390087
302.319,0.009463489882059728
303.527,0.0069059446830973936
304.735,0.006000475629782666
305.943,0.0049870717948100945
307.151,0.0029736066288491327
308.358,0.0028209206126740046
309.566,0.002061033566163026
310.773,0.0015958496885664657
311.98,0.0019102938672097064
313.187,0.0017970568985014195
314.394,0.0010089007338168828
315.601,0.0009180134411685914
316.807,0.0008650177543039205
318.013,0.0011633856630196416
319.22,0.0021915682231051937
320.426,0.0027220928888288184
321.631,0.003575201450984049
322.837,0.005166323053045817
324.043,0.005740714528121659
325.248,0.006921431821130419
326.454,0.008064483463469004
327.659,0.010391733853139367
328.864,0.011121321579631317
330.068,0.013585977892150734
331.273,0.013334910728652912
332.478,0.013243689837038851
333.682,0.011421289114783198
334.886,0.00825560948721596
336.09,0.0064280253740532
337.294,0.005002689851041897
338.498,0.004236610858611014
339.701,0.0036642558888494714
340.905,0.003920836163162431
342.108,0.0028534843326496447
343.311,0.00411334507099424
344.514,0.0036468398893544736
345.717,0.004678407897083939
346.92,0.004875796174672365
348.122,0.005509396617350359
349.324,0.005420333451605018
350.527,0.005922632638554678
351.729,0.005925294641929797
352.931,0.005088906758169395
354.132,0.0054839112079885614
355.334,0.005093183419329423
356.535,0.004576161268721819
357.737,0.004349838614557165
358.938,0.004254202385468815
360.139,0.003789804501947131
361.34,0.004304627226815292
362.54,0.0032675141060443213
363.741,0.002976684176284813
364.941,0.003447408318100702
366.141,0.002158701451743497
367.341,0.0022368319781265766
368.541,0.0023424548413704736
369.741,0.0020013799615672505
370.94,0.0019137457437174428
372.14,0.0017550651286850104
373.339,0.0006392871413270658
374.538,0.0005690737717944326
375.737,0.0002740531504920925
376.936,0.0005869819267403858
378.135,0.0006450732408307633
379.333,0.0010279216934524348
380.531,0.0010489127295384626
381.73,0.0010040848836307835
382.928,0.0009920481674588412
384.126,0.0007329203219741369
385.323,0.00046216281893924136
386.521,0.0004100001112363405
387.718,0.0011235157377878452
388.916,0.001382359442292983
390.113,0.0015472858251714832
391.31,0.002626120151481392
392.506,0.0019576833458734427
393.703,0.0018757081883862977
394.9,0.0029232811883572823
396.096,0.004489403233039377
397.292,0.005434298059474498
398.488,0.005525174684714
399.684,0.00660446431542632
400.88,0.007256470887087835
402.075,0.006482734634675188
403.271,0.006348975026103162
404.466,0.005512276817723439
405.661,0.004937371367496847
406.856,0.006132271465373046
408.051,0.007361297573730285
409.245,0.00843062287486907
410.44,0.009092991379522627
411.634,0.010662113875367788
412.828,0.01045679534910904
414.022,0.011856412719294053
415.216,0.013712183035771146
416.41,0.014612909940996864
417.603,0.01748221016182313
418.797,0.0166128696825485
419.99,0.01579662865493313
421.183,0.011620052033458776
422.376,0.008189937039651997
423.569,0.005234890247449392
424.761,0.0030410639278564146
425.954,0.0009004699176503413
427.146,0.001775805480664492
428.338,0.00025086971945877855
429.53,0.0004035602935267531
430.722,7.420021659114748e-05
431.914,0.00011210059874290806
433.105,0.0003757553046119683
434.297,0.00043253957019634003
435.488,0.000906739444725076
436.679,0.0003836630547473911
437.87,0.000912591973092597
439.061,0.0006024186370227718
440.251,0.0012424350412052437
441.442,0.001082083037168433
442.632,0.0029094256789867837
443.822,0.003548504320960243
445.012,0.0041582058888927215
446.202,0.0072308545595272606
447.391,0.009512860589464947
448.581,0.011741272587881333
449.77,0.01570935955339324
450.96,0.01808803655107183
452.149,0.020834317304447906
453.337,0.02574248421597327
454.526,0.02913367286534388
455.715,0.03303637831262244
456.903,0.036385164012056034
458.091,0.03865269630779567
459.28,0.03762135667959073
460.467,0.034615494230974195
461.655,0.02996077525463551
462.843,0.02705686414111052
464.03,0.02300719574247223
465.218,0.02266056314268984
466.405,0.02353262381120571
467.592,0.026562274581422133
468.779,0.02957366953614252
469.965,0.034371540289609884
471.152,0.04025187180349327
472.338,0.04858073729615787
473.525,0.05790351920746607
474.711,0.06630977675089621
475.897,0.0776300309579793
477.082,0.08908115487561696
478.268,0.10012963259968469
479.454,0.1093888464522537
480.639,0.11263542382902036
481.824,0.1082759447862111
483.009,0.09595227531783986
484.194,0.07947903231869743
485.378,0.06328256008941259
486.563,0.05014123373735032
487.747,0.041104905693786976
488.932,0.034623315381145534
490.116,0.031007931740781498
491.3,0.02948228863339662
492.483,0.028577188090567338
493.667,0.029126627526720836
494.85,0.03073785719435022
496.034,0.03533586919533003
497.217,0.04215452538159883
498.4,0.05057321530509055
499.582,0.06041690618286336
500.765,0.07297016738131092
501.948,0.0856054221627699
503.13,0.0999164298885663
504.312,0.11530111230899416
505.494,0.1319663686663419
506.676,0.14949350316563403
507.858,0.16439936439609282
509.039,0.1683948908463038
510.221,0.16317818853083998
511.402,0.14746926537144264
512.583,0.12428748293766888
513.764,0.09957866093572328
514.945,0.07616995362407049
516.125,0.0593776581256879
517.306,0.04656196897338203
518.486,0.03726962796770042
519.666,0.030613741893088055
520.846,0.025596980760088785
522.026,0.021113134277264137
523.206,0.01845573243439068
524.385,0.014690025608898318
525.565,0.013104509245273049
526.744,0.01188701848487466
527.923,0.01116641077705433
529.102,0.008994109348869059
530.281,0.008807987309608665
531.459,0.007626145089854863
532.638,0.006752183683045646
533.816,0.006814195269866049
534.994,0.004970537311186858
536.172,0.005071053394914042
537.35,0.0049932637407299986
538.527,0.0037292271967266557
539.705,0.004238883986447545
540.882,0.004416216080865651
542.059,0.005513775103776102
543.236,0.0036833054565358673
544.413,0.003629939804539099
545.59,0.003839954415076178
546.766,0.0028802668019437642
547.943,0.002099672375444107
549.119,0.0026005784957823415
550.295,0.0026193395585492117
551.471,0.002498384234699732
552.647,0.0029254592792791463
553.822,0.0026859158265669504
554.998,0.002867273413156319
556.173,0.002446401466787816
557.348,0.0028319962922904846
558.523,0.00260578710056477
559.698,0.0017594785266304269
560.873,0.0015564622211412709
562.047,0.001228683781511549
563.222,0.002133188404095291
564.396,0.0019605717892442237
565.57,0.0033168028683547507
566.744,0.002557261057982768
567.917,0.002795847838079461
569.091,0.0034041383987584613
570.264,0.0036740529340579023
571.438,0.004308547984427535
572.611,0.00409458400822737
573.784,0.005406766447154046
574.957,0.005602605526056952
576.129,0.005707878304339676
577.302,0.005266106964624289
578.474,0.007598511652268698
579.646,0.007939442037171049
580.818,0.007567808910244552
581.99,0.007304789400080666
583.162,0.008152906584686995
584.333,0.007225055368203686
585.504,0.008062068750024907
586.676,0.006888915619612113
587.847,0.0067850247556498055
589.018,0.008101717568965437
590.188,0.00785212929623157
591.359,0.007146635367136646
592.529,0.008210903346744921
593.7,0.007568308338928773
594.87,0.00735236604328043
596.04,0.00809645174808132
597.209,0.007235553068216679
598.379,0.007882594445969046
599.549,0.008262960301636145
600.718,0.0074262814885451296
601.887,0.008044263874991322
603.056,0.007120325658004773
604.225,0.006627884126540757
605.394,0.006523275636896269
606.562,0.007131356728457226
607.73,0.007909035073299694
608.899,0.007004084843957896
610.067,0.004542550688038186
611.235,0.004796252216624718
612.402,0.005408652638980862
613.57,0.004949347958273795
614.737,0.005605160855344179
615.905,0.005140803701928781
617.072,0.00625219738427437
618.239,0.006427661712389932
619.406,0.00736427959936908
620.572,0.008266853905844198
621.739,0.008621394934597112
622.905,0.009901959173872646
624.071,0.011453979873899874
625.237,0.012627695467685187
626.403,0.012700655694981036
627.569,0.011716470862446477
628.734,0.011488619859531663
629.9,0.011658275298679296
631.065,0.010489534596447483
632.23,0.009645558305980231
633.395,0.009291186986003506
634.56,0.008335474437291717
635.724,0.008596695034427972
636.889,0.00782985380715088
638.053,0.007198682624383514
639.217,0.00819174565032398
640.381,0.008045228790604524
641.545,0.009387188816283993
642.708,0.010447810481615239
643.872,0.010136123343261786
645.035,0.011046223021755456
646.198,0.012892072648058606
647.361,0.012240691574457912
648.524,0.012122642149739049
649.687,0.012183945808521624
650.849,0.011192987171405933
652.012,0.011540347094514857
653.174,0.010083882133127841
654.336,0.009359526285764766
655.498,0.008174440203974617
656.66,0.007367567100805019
657.821,0.006424936674326513
658.983,0.005584194548251254
660.144,0.004253846966803248
661.305,0.004460774332260294
662.466,0.003445997310847223
663.627,0.00359996632537036
664.787,0.003283808088087584
665.948,0.002259892006635488
667.108,0.0017548663269757573
668.268,0.002980860951707997
669.428,0.0008320559460275567
670.588,0.0022858031425844185
671.748,0.0011114218055142155
672.907,0.0010036586721614337
674.067,0.0023649087671072724
675.226,0.00033186022662645996
676.385,0.0008297168742094189
677.544,0.00041097554879366795
678.703,0.00024070804282264448
679.861,0.00019819560648087978
681.02,0.00032170800519357086
682.178,0.000258048255227017
683.336,0.0007133829627767446
684.494,0.00046824280555508087
685.652,0.0005945965170869931
686.809,0.0006535397692338524
687.967,0.0005338441693859317
689.124,0.0009605405209533303
690.281,0.0011262242898558627
691.438,0.000127897140119042
692.595,0.00068868403237204
693.752,0.0005499529264220363
694.908,0.0010917806815222376
696.065,0.000533048477666702
697.221,0.000517990460396332
698.377,6.226760463134341e-05
699.533,4.212414266183836e-05
700.688,0.00036407837104555224
701.844,9.531911611797996e-05
702.999,0.0004395854906780402
704.155,0.0007713889375968086
705.31,0.0005123653417889078
706.465,0.000893224807553614
707.619,0.0005442235581378086
708.774,0.0009708723912478736
709.929,0.0006661636777714173
711.083,0.0004057289777335944
712.237,0.000281553696541099
713.391,0.0003318980959276615
714.545,0.0005330387800223483
715.698,0.0007932842790188284
716.852,0.0002970187724332199
718.005,2.4225171385088307e-05
719.158,0.00030940600996033033
720.311,0.0005589974344286121
721.464,0.0015290741339572562
722.617,0.0017668463119282299
723.77,0.0016117315207246912
724.922,0.000787337198618858
726.074,0.0017665340477800372
727.226,0.0017612968349467652
728.378,0.0021971603697218153
729.53,0.0025310662659364883
730.681,0.0019580906469363027
731.833,0.001559549951103522
732.984,0.0031779767254900802
734.135,0.0021003259966735533
735.286,0.0021910993420006875
736.437,0.003770337935553521
737.588,0.0013588538070260139
738.738,0.002632342160098793
739.888,0.002746829155164285
741.039,0.0036709370809270246
742.189,0.004619147047084493
743.338,0.0046051213440555855
744.488,0.004095607109706696
745.638,0.005019175846443365
746.787,0.005617748397715417
747.936,0.006124052711783198
749.085,0.007808489896639449
750.234,0.008047861701046584
751.383,0.009407180510119363
752.531,0.011634302721836692
753.68,0.013914640756945524
754.828,0.018808363027205895
755.976,0.02137936855653131
757.124,0.025733601173745183
758.272,0.03103042542686015
759.419,0.034842365771809276
760.567,0.041500424118756894
761.714,0.04735348585671738
762.861,0.05154811949197851
764.008,0.055611674917331454
765.155,0.056091902265731845
766.302,0.0521789512571935
767.448,0.045632949190754085
768.595,0.03850012326917726
769.741,0.031061705178723344
770.887,0.025271775105506128
772.033,0.01974841872910847
773.178,0.017139097806941173
774.324,0.014233877511428414
775.469,0.013011086988390671
776.614,0.011080252055792956
777.759,0.009794203798635347
778.904,0.009409924943471489
780.049,0.009054627498458976
781.194,0.00906288504262624
782.338,0.007742468333878748
783.482,0.008007490407601695
784.626,0.0078845145795511
785.77,0.006646362987856932
786.914,0.007492981886410596
788.058,0.0068024320272648845
789.201,0.006414831728909849
790.345,0.0060732709971245006
791.488,0.006972945707937829
792.631,0.007460407499026167
793.773,0.007333378055635682
794.916,0.008964361824813763
796.059,0.008855122709990332
797.201,0.00845983217966273
798.343,0.010499348612533535
799.485,0.011379283768264694
800.627,0.011716126596071916
801.769,0.013345927252638834
802.91,0.016323836241405532
804.052,0.017198675285028768
805.193,0.021569418141754993
806.334,0.02570247173536947
807.475,0.029233679822742487
808.616,0.03302042083883825
809.756,0.03671753622581615
810.897,0.03970368821228359
812.037,0.042076110229353966
813.177,0.045965990541974616
814.317,0.048349870325849024
815.457,0.05129922944963812
816.596,0.04928905323975975
817.736,0.04882807571540165
818.875,0.0428937234736454
820.014,0.037011913068998065
821.153,0.030608699118024073
822.292,0.024906886690227704
823.431,0.02014675916858534
824.569,0.016254759920673385
825.707,0.014189205312712614
826.846,0.012329294102096445
827.984,0.011074462562113734
829.122,0.00986302313179212
830.259,0.008819333553502617
831.397,0.009571734988336893
832.534,0.00843431767736787
833.671,0.007254157998909453
834.808,0.008465209523456915
835.945,0.006548067664686769
837.082,0.0076289961972948826
838.219,0.007292638251705349
839.355,0.006354221451698571
840.491,0.007738948088978318
841.627,0.008258993965095439
842.763,0.007728435842498793
843.899,0.008483033793779206
845.035,0.008347872875598057
846.17,0.010091441446901632
847.306,0.00946361110261415
848.441,0.010665561387935568
849.576,0.01104612119648974
850.71,0.011879822832764139
851.845,0.01217654650587967
852.98,0.012398923188556761
854.114,0.0146889588680194
855.248,0.014094740559062206
856.382,0.014449388261903012
857.516,0.01614301881360667
858.65,0.015483511114037488
859.783,0.016230200636347374
860.917,0.015827748395664486
862.05,0.014749123053590402
863.183,0.014467973797307078
864.316,0.012998906747082295
865.448,0.011001352021330402
866.581,0.010458482739226602
867.713,0.00828160887172851
868.846,0.007598215874115906
869.978,0.007787664205389655
871.11,0.006861917377731122
872.241,0.0062223092443759445
873.373,0.005215742248672805
874.505,0.004973781173223205
875.636,0.004206798360338548
876.767,0.004241365128755466
877.898,0.003831952403837636
879.029,0.0037406578101264847
880.159,0.003293240501868312
881.29,0.0033086393913377187
882.42,0.0029458868822282184
883.55,0.0017928519999096098
884.68,0.002244824776602982
885.81,0.002391378487370982
886.94,0.00227617144221222
888.069,0.0032083861137725224
889.199,0.002530838856176392
890.328,0.0023721916980169798
891.457,0.0027081806482388503
892.586,0.0031509198128607478
893.714,0.0028324695373349506
894.843,0.002223147147296705
895.971,0.0029667309990022853
897.1,0.0026969774445991176
898.228,0.0023545768968127293
899.356,0.00264258917600524
900.483,0.0023468774520780263
901.611,0.0031849090865563976
902.738,0.0022367088180432833
903.866,0.001710431720546625
904.993,0.0017272983484889796
906.12,0.002820698051736085
907.246,0.0022849788428143452
908.373,0.00271910940854337
909.5,0.0018974803697250243
910.626,0.0023317719163503227
911.752,0.0027128306687064993
912.878,0.001644167231794861
914.004,0.002418141561376394
915.129,0.000622344386876534
916.255,0.001192857773975289
917.38,0.0004979231249350043
918.505,0.0004673715206981133
919.63,0.0009023924756434831
920.755,0.0004662445574477577
921.88,0.00037360553081161694
923.004,8.145453945001094e-05
924.129,0.0008166759669646403
925.253,0.00046752304639114154
926.377,0.0006363890003119315
927.501,0.0004657805251654282
928.625,0.0002382930869374383
929.748,0.0005398765890562158
930.872,0.0005694999832637825
931.995,0.0005823983351365601
933.118,0.0004420004465632464
934.241,0.0004628541640052241
935.364,5.2380516795087325e-05
936.486,0.00025354035373737274
937.609,0.00012346502572002272
