wavelength,intensity
126.749,0.0
127.979,0.000669255771673628
129.209,0.0005996063201601686
130.439,0.0008083185370605317
131.668,0.0014935982113821686
132.898,0.0011737180181964027
134.127,0.00015689067232582907
135.356,0.00019630155956213823
136.585,3.701488539699251e-05
137.814,0.0004577638704839121
139.043,0.0005558578220690679
140.271,0.0010494053698716357
141.5,0.002617663320722657
142.728,0.0022977831275368906
143.956,0.003956406637769968
145.184,0.00474742312265666
146.412,0.008127644221145333
147.639,0.00984106281615293
148.867,0.014443278745960115
150.094,0.018640472559330656
151.321,0.024012623264963798
152.549,0.030697941690189964
153.775,0.037672914205797735
155.002,0.044966599803093296
156.229,0.05087835168468301
157.455,0.05785110343973375
158.681,0.06259087560587748
159.908,0.0712717219491856
161.134,0.07698014332160909
162.359,0.0818952488976696
163.585,0.084759399669344
164.811,0.0834199610311965
166.036,0.07824214626959143
167.261,0.0705995782190234
168.486,0.061763812007163264
169.711,0.054344483729619815
170.936,0.04940440671934826
172.161,0.04803032809556899
173.385,0.047439673670911814
174.61,0.04760872785610951
175.834,0.04895361172156165
177.058,0.05153716115385871
178.282,0.052437296502778855
179.505,0.055141775560167854
180.729,0.0567234128660516
181.952,0.05795341358766639
183.176,0.05952782614850656
184.399,0.05960404963312746
185.622,0.05948491407224097
186.845,0.05924994014954829
188.067,0.05614242699281517
189.29,0.05350762551010826
190.512,0.04835243050395843
191.734,0.04237536983646802
192.956,0.03753066430959395
194.178,0.033887642382821576
195.4,0.03044414463980654
196.622,0.029525574068969825
197.843,0.028821927541124302
199.064,0.03080163860126519
200.286,0.033624424070948435
201.507,0.035610336774653584
202.727,0.038035383058809887
203.948,0.041348835391040395
205.169,0.04301561316552837
206.389,0.044849117690569124
207.609,0.04788205596222149
208.829,0.04986936027789141
210.049,0.05101440963496688
211.269,0.05024509550837957
212.489,0.0470520054890463
213.708,0.04013074337669207
214.928,0.03282200218653723
216.147,0.02571720730596508
217.366,0.020256366793894216
218.585,0.014882960243317258
219.803,0.01106612743679164
221.022,0.008442153374005744
222.24,0.007461930029189714
223.459,0.005686475603250829
224.677,0.004459330353016012
225.895,0.0041586747699972285
227.112,0.0031116370799945743
228.33,0.0024478832668450774
229.548,0.0028168010533525085
230.765,0.0017572815253020725
231.982,0.00195359239460279
233.199,0.0012273910855191868
234.416,0.000903727841271002
235.633,0.0008267668507969917
236.849,0.000366209185951192
238.066,0.0008215533971923863
239.282,0.0004958774068585693
240.498,9.664022620829874e-05
241.714,0.00025953984990507566
242.93,0.00035385986621350494
244.146,0.000604075964442837
245.361,0.0012038670247279456
246.577,0.0003640167910039056
247.792,0.0005768158861642925
249.007,0.0009585137132833852
250.222,0.0013247559197136019
251.437,0.001227500184018167
252.651,0.0003241513266885119
253.866,0.0006011831571320972
255.08,0.00042506743824529016
256.294,0.00037138472176637393
257.508,0.0005512456224143985
258.722,3.6655010663845e-05
259.936,0.000145905035337174
261.149,0.00045151815112606607
262.363,0.0009322665539575956
263.576,0.001007125095135701
264.789,0.001560392676397868
266.002,0.0015594549141888549
267.215,0.001989234146896328
268.427,0.0029179397258472066
269.64,0.0034438381303318485
270.852,0.003150039266753422
272.064,0.005232490080471826
273.276,0.006704810690377311
274.488,0.00854216518022653
275.7,0.011431762570685308
276.912,0.014998881035100461
278.123,0.018997724079680457
279.334,0.024503673184463042
280.545,0.03228865599118887
281.756,0.04017683628030571
282.967,0.049579400711712664
284.178,0.05859588252610594
285.388,0.06738340295730591
286.598,0.07660217763291956
287.809,0.08569832559567934
289.019,0.09354628975366096
290.229,0.09985358915315364
291.438,0.10316984410460239
292.648,0.10248431762523195
293.857,0.09868342289720182
295.067,0.08764120015374231
296.276,0.07237080447202403
297.485,0.059058266208895344
298.693,0.04549047624873017
299.902,0.03585880981828676
301.111,0.02765121336826649
302.319,0.02377936097649956
303.527,0.0191209423488399
304.735,0.016386386047487572
305.943,0.014339223022043794
307.151,0.01225698846579448
308.358,0.011046475160508655
309.566,0.010964714320961728
310.773,0.01073170417125069
311.98,0.010298980733717402
313.187,0.008788970229030855
314.394,0.008805528956764976
315.601,0.007749722171855394
316.807,0.006518615918784265
318.013,0.0062323220621712475
319.22,0.005872621886622108
320.426,0.005778942642164356
321.631,0.00460816640438268
322.837,0.00506099208889697
324.043,0.004518965047205298
325.248,0.00443179049769786
326.454,0.004736248042185553
327.659,0.005213972428578236
328.864,0.004332848826531517
330.068,0.00512308610569438
331.273,0.0042867520438601425
332.478,0.00446129994458427
333.682,0.00400311485691785
334.886,0.004356624056311522
336.09,0.003951913234258633
337.294,0.0036909952036262164
338.498,0.003802007047837523
339.701,0.0045280042215074786
340.905,0.004479388475715204
342.108,0.004708684427638735
343.311,0.005050077390176763
344.514,0.005091098425793355
345.717,0.005364775647102072
346.92,0.006026251968475079
348.122,0.006619733256461384
349.324,0.006471218682005045
350.527,0.006831704366746844
351.729,0.006455033313578546
352.931,0.006199432501345321
354.132,0.006826167011820821
355.334,0.007059986914835402
356.535,0.006740871380906934
357.737,0.006111261518880529
358.938,0.005568770444906528
360.139,0.005918283245061996
361.34,0.00623367973238078
362.54,0.005554893115836233
363.741,0.005937819149612735
364.941,0.004778646628182604
366.141,0.005030294195695001
367.341,0.004287760598872938
368.541,0.004282059353757336
369.741,0.003783629526904846
370.94,0.003928710650377721
372.14,0.0035402748999616043
373.339,0.0037697177711970955
374.538,0.0029002255237883297
375.737,0.002778995271721419
376.936,0.002387784540373462
378.135,0.002982821330514118
379.333,0.0022976977882665775
380.531,0.002745943760234783
381.73,0.002707409200630505
382.928,0.0025496139805275746
384.126,0.0027724702117179617
385.323,0.0026604978158334108
386.521,0.0023566788612264166
387.718,0.002522325294198187
388.916,0.0024979769336368725
390.113,0.002121099320643838
391.31,0.002451808873279497
392.506,0.0023864016562886096
393.703,0.0025640232253906757
394.9,0.0021613338773033377
396.096,0.0020996961346727737
397.292,0.003156905198955916
398.488,0.003028444383258809
399.684,0.003750175563177526
400.88,0.004514390668363608
402.075,0.004074819239269881
403.271,0.0036531283268356985
404.466,0.004677825553540494
405.661,0.005742144930663844
406.856,0.0064805672111621125
408.051,0.007045716831168778
409.245,0.007131802820097502
410.44,0.006059306389255021
411.634,0.005301076670164107
412.828,0.0032186045216281265
414.022,0.00218101815581269
415.216,0.0010211411005202548
416.41,8.50248726835294e-05
417.603,0.0003318033984305466
418.797,0.0006483171028671109
419.99,0.0006154546954453736
421.183,0.0005344076025228877
422.376,0.0005217124162993222
423.569,0.00034944666222097554
424.761,0.0002793376393415894
425.954,0.0005974515035847531
427.146,0.00023217052766288558
428.338,0.0010455272818945492
429.53,0.0003368179533494554
430.722,0.0003169443768223167
431.914,0.0007870482088171145
433.105,0.00045269248736909
434.297,0.0003754570050716453
435.488,0.0005796427494934266
436.679,0.0001855148212591797
437.87,0.00046570948992053656
439.061,0.00028504824268399246
440.251,0.00034173305892551593
441.442,0.00089773275753148
442.632,0.000968746182723302
443.822,0.0011220475144326793
445.012,0.001842495696003388
446.202,0.0025821350308680583
447.391,0.0033748893336229516
448.581,0.004123402497953571
449.77,0.004290630131837229
450.96,0.005771291200769205
452.149,0.006503303338349607
453.337,0.007530269328950975
454.526,0.009169627014028566
455.715,0.009379130073825983
456.903,0.01108187156240004
458.091,0.012294697755864248
459.28,0.013492802925199382
460.467,0.015660483425850066
461.655,0.016436372555309258
462.843,0.019394057106776098
464.03,0.02209457467644657
465.218,0.02656444200493521
466.405,0.032460013366920594
467.592,0.042117451287234244
468.779,0.053626664094551205
469.965,0.06790048135425077
471.152,0.08454042685983508
472.338,0.10170259051387179
473.525,0.11738697863305397
474.711,0.13244436555654093
475.897,0.1466974783455451
477.082,0.15950370259696167
478.268,0.1706191425552924
479.454,0.17701008413733665
480.639,0.17375070587002295
481.824,0.15979540773912412
483.009,0.13977229353604978
484.194,0.11517664304371307
485.378,0.09062453497452495
486.563,0.07379660063314214
487.747,0.059746895934459004
488.932,0.051132672407861526
490.116,0.04592711268576022
491.3,0.042898577144644484
492.483,0.041266434506966126
493.667,0.04345024703899936
494.85,0.04798566074567536
496.034,0.05473205008621961
497.217,0.06595867353706672
498.4,0.08108855035209836
499.582,0.09918096054077377
500.765,0.11686602117836759
501.948,0.1384445890475704
503.13,0.1538796507304163
504.312,0.1729221391364339
505.494,0.190960872863611
506.676,0.20521742831636078
507.858,0.21308318765173162
509.039,0.21412170838558053
510.221,0.20694147552958014
511.402,0.18030267683656212
512.583,0.15022994227786196
513.764,0.12071055530598986
514.945,0.09529172027268046
516.125,0.07550818637336687
517.306,0.05917832304599544
518.486,0.0483611050468329
519.666,0.040475892236888335
520.846,0.0327339233316938
522.026,0.027942200884746745
523.206,0.024951432819566903
524.385,0.022455360988163333
525.565,0.01875629637467032
526.744,0.01698337303390778
527.923,0.01441029220869065
529.102,0.013557563794194087
530.281,0.012154077063911905
531.459,0.012287536045508965
532.638,0.010286936259429976
533.816,0.010211435249313432
534.994,0.008568217901783024
536.172,0.008646909436891972
537.35,0.00856839730820357
538.527,0.008094415242767022
539.705,0.007203245366051979
540.882,0.007127419484849582
542.059,0.006501611099409868
543.236,0.006495084584759758
544.413,0.00616732844971205
545.59,0.005944675384170875
546.766,0.005660151347652428
547.943,0.005761646893459346
549.119,0.005450982856585218
550.295,0.004662705956228477
551.471,0.005018574592493429
552.647,0.005216576246087233
553.822,0.0049554477765723385
554.998,0.004036781683938735
556.173,0.004481959321233397
557.348,0.004239305349094718
558.523,0.003864326534866159
559.698,0.004043851266672659
560.873,0.0038730631426645017
562.047,0.00356356718705279
563.222,0.0039325843744148475
564.396,0.004700876369287269
565.57,0.003551326820349418
566.744,0.004625681804732304
567.917,0.004642946036093165
569.091,0.004968622026426982
570.264,0.006036327820958681
571.438,0.005432518541735574
572.611,0.005966267189324622
573.784,0.006335888055047703
574.957,0.006893046816106835
576.129,0.007912865642819447
577.302,0.008065923563655543
578.474,0.008222574461724726
579.646,0.00964011307867557
580.818,0.009628083150854675
581.99,0.009229393596181064
583.162,0.009270695863483917
584.333,0.008869892222341177
585.504,0.008857707132210622
586.676,0.008867249614254764
587.847,0.008797334447286012
589.018,0.00909656981028918
590.188,0.009052935259519237
591.359,0.009385569309676909
592.529,0.009479292193534253
593.7,0.009535683995451625
594.87,0.009606525287456168
596.04,0.00959484447483201
597.209,0.010063095232455462
598.379,0.01003182517823662
599.549,0.009772553807615478
600.718,0.009275598022704766
601.887,0.008667022351281764
603.056,0.008926288873080727
604.225,0.008191445023349012
605.394,0.008227471772123397
606.562,0.007603966577217712
607.73,0.007004603667930824
608.899,0.00752522170506482
610.067,0.006741414448990746
611.235,0.006156311925726129
612.402,0.007045159216618435
613.57,0.006910808051740828
614.737,0.007140021573687351
615.905,0.0068648703104368545
617.072,0.006977532693717179
618.239,0.0078610656755036
619.406,0.00926333535141938
620.572,0.009773329619163782
621.739,0.010079590925501283
622.905,0.010274237194148671
624.071,0.011220358772594545
625.237,0.01209850471294243
626.403,0.01165765949826283
627.569,0.01129914728414703
628.734,0.010659306407327363
629.9,0.01064486176606237
631.065,0.009728434374627844
632.23,0.009199810932079782
633.395,0.008001948203853497
634.56,0.007928915244224994
635.724,0.007875180596860563
636.889,0.0073461450044274654
638.053,0.008126199272136616
639.217,0.008620066357320643
640.381,0.008473787089887854
641.545,0.008836527476941912
642.708,0.009863454676965864
643.872,0.01037145607879556
645.035,0.010762983923113886
646.198,0.011847786664641344
647.361,0.011424503883886484
648.524,0.011898136834126298
649.687,0.011270995022587937
650.849,0.010546774942245816
652.012,0.01005533226815024
653.174,0.010295974463967723
654.336,0.00892196372369893
655.498,0.007455810815602463
656.66,0.007240552203881065
657.821,0.0057063266812430674
658.983,0.005539372036047969
660.144,0.005207489553327718
661.305,0.004027017610721107
662.466,0.0035592439771998637
663.627,0.0027083227187286335
664.787,0.0025313693173225444
665.948,0.002189465773809289
667.108,0.00224992428288643
668.268,0.001903020633944353
669.428,0.0012457070264102175
670.588,0.0017666096894059968
671.748,0.0016086016060095007
672.907,0.0007038511481413901
674.067,0.0011712460886506178
675.226,0.0014203262048203453
676.385,0.00018781612075255926
677.544,0.0014427185505154977
678.703,0.0011239274027906641
679.861,0.0010231868185966897
681.02,0.00042286083624902543
682.178,0.0008115240934016817
683.336,0.00016237396288457895
684.494,6.094174269529126e-05
685.652,0.00023080204457989845
686.809,0.00046262214786405937
687.967,0.00017224684367185672
689.124,0.00031728059415206313
690.281,0.00017940642054538352
691.438,0.00036541368818484936
692.595,3.982284316845879e-06
693.752,0.00010348259313501259
694.908,5.300557846191179e-05
696.065,0.00021620350169901175
697.221,0.00033129199315554874
698.377,0.0004952902144929464
699.533,0.0003640404532561289
700.688,0.0007470832466706507
701.844,0.00012033035915909895
702.999,8.177650124255726e-06
704.155,0.00011405622570329627
705.31,6.143894092131081e-05
706.465,0.0005911490045192156
707.619,0.00023633745997705009
708.774,0.0008321888037552038
709.929,0.0002332074967736379
711.083,0.00034248593554492355
712.237,0.00040852747545299355
713.391,0.0009549289790480014
714.545,0.000624390104952969
715.698,1.3159058494763199e-05
716.852,0.0005852208345257349
718.005,4.949682527004001e-05
719.158,0.00011665112137948729
720.311,0.0003788758126121355
721.464,0.00032211045743425374
722.617,0.0001494279955780241
723.77,3.489828238915331e-06
724.922,0.00026765120208370664
726.074,0.0015838081235723465
727.226,0.0012997117531699017
728.378,0.0008700130109105651
729.53,0.0019820884376542274
730.681,0.0005047463875023412
731.833,0.0013886192717233637
732.984,0.001443206342026494
734.135,0.0017206927980373858
735.286,0.0012076883814855623
736.437,0.0015527834197556552
737.588,0.0013692239830157547
738.738,0.0015297936991683083
739.888,0.0018647842769039546
741.039,0.0015983875620938562
742.189,0.0017003645959429406
743.338,0.0024664974102999873
744.488,0.0023451629085562736
745.638,0.002553411578056525
746.787,0.002063292147533027
747.936,0.002712518404558307
749.085,0.0029155201635809327
750.234,0.0033220395963058057
751.383,0.0042520999361729105
752.531,0.004646289298984138
753.68,0.005054795294154889
754.828,0.006018411423015028
755.976,0.006850973586077853
757.124,0.007688268199585335
758.272,0.009403063860091172
759.419,0.010749227814598014
760.567,0.01189645914165309
761.714,0.013315103290060267
762.861,0.014195402107454696
764.008,0.015478017398511058
765.155,0.014593087955937686
766.302,0.014032913227484524
767.448,0.014253277648958201
768.595,0.013304945007599657
769.741,0.012487414193285229
770.887,0.012047970288214754
772.033,0.01218055648181997
773.178,0.012201513091268542
774.324,0.012842992869984002
775.469,0.012679451795601442
776.614,0.011429653333038355
777.759,0.011484076513151906
778.904,0.01040859805667063
780.049,0.008048075049222368
781.194,0.007365123294427861
782.338,0.006749943527199917
783.482,0.0065031578736843
784.626,0.005582279263491378
785.77,0.0057329176220612
786.914,0.005399003482848826
788.058,0.005166361843623232
789.201,0.005673335295151426
790.345,0.00550158516482337
791.488,0.006150464246180784
792.631,0.0046701353215679265
793.773,0.0059109906165079355
794.916,0.00580379285582098
796.059,0.0061037943327280995
797.201,0.006655832737568422
798.343,0.007156924567796031
799.485,0.00795607834606
800.627,0.00891994176485116
801.769,0.010166472121267017
802.91,0.011687746439870507
804.052,0.013709739229393987
805.193,0.01771117639383863
806.334,0.019110914984578065
807.475,0.02168691480074569
808.616,0.02365765069103714
809.756,0.02235492733441316
810.897,0.023415224128658554
812.037,0.022156256543358944
813.177,0.02216377706655532
814.317,0.021600431208398465
815.457,0.020160335870680668
816.596,0.019026865500963643
817.736,0.017703767393552325
818.875,0.015558629067202057
820.014,0.013759284494397577
821.153,0.01290203697763214
822.292,0.010693602126584592
823.431,0.009099823369969883
824.569,0.008312825588903408
825.707,0.0073789084958767945
826.846,0.006784733826319191
827.984,0.00653836032268861
829.122,0.00658553936246987
830.259,0.006039363183641422
831.397,0.005695203483169255
832.534,0.005184263695100356
833.671,0.005938105230121172
834.808,0.006199631303054573
835.945,0.006048202586469915
837.082,0.005836944253044461
838.219,0.0065906257769334405
839.355,0.006543868584681572
840.491,0.0060451381308541125
841.627,0.006686394863749437
842.763,0.007109090937020891
843.899,0.007503237145314745
845.035,0.007764826252936445
846.17,0.008623586602221072
847.306,0.008588844791323567
848.441,0.009487792178810362
849.576,0.010828564243056489
850.71,0.011359132063297488
851.845,0.01187642380841813
852.98,0.012722936032883901
854.114,0.012675243017951891
855.248,0.013860091507455374
856.382,0.01495604169116753
857.516,0.013956243651223346
858.65,0.014118863449392293
859.783,0.014694758059342974
860.917,0.013452232830045239
862.05,0.01306449676466925
863.183,0.01230865751491155
864.316,0.011300703756065818
865.448,0.009345736235493656
866.581,0.00825052307275239
867.713,0.007351168384202736
868.846,0.006532376876122314
869.978,0.006634871279297673
871.11,0.005699737131904658
872.241,0.004803411987451133
873.373,0.0043532007878546285
874.505,0.005008537530587241
875.636,0.004209260592239979
876.767,0.0039821660055847615
877.898,0.0039054043017022217
879.029,0.0029025505340221545
880.159,0.0030537397187912724
881.29,0.0026376501657358474
882.42,0.0027501108380136126
883.55,0.002154671595632274
884.68,0.002378725970782573
885.81,0.002214903179831536
886.94,0.0022208221370628805
888.069,0.002372238731592096
889.199,0.0019321421750566102
890.328,0.0023551733019404886
891.457,0.0017939318326084057
892.586,0.0020667299624564507
893.714,0.002654744203438299
894.843,0.002001502636768326
895.971,0.002560509768841292
897.1,0.0025861930101479078
898.228,0.002597372939441191
899.356,0.003030452280522264
900.483,0.0023774429724345647
901.611,0.0024954482728716176
902.738,0.002889883955849433
903.866,0.0023146070858440886
904.993,0.002655819187314918
906.12,0.003021318069305416
907.246,0.0025334809793805856
908.373,0.0032142720990130645
909.5,0.002542293228804888
910.626,0.002432844644863415
911.752,0.002202236601658814
912.878,0.0017583327499500249
914.004,0.0016345171058983904
915.129,0.0016562325560176472
916.255,0.0017749860297165956
917.38,0.0008464651908906571
918.505,0.0004562249028131851
919.63,7.575339131085281e-05
920.755,0.00043230755405517527
921.88,6.212553414156017e-06
923.004,0.0003117451787549115
924.129,0.0007182031769028032
925.253,9.49119120315637e-05
926.377,0.0005572169469252536
927.501,0.0004528440130621182
928.625,0.0007909073863877111
929.748,0.0004811224894624775
930.872,0.00012582790525504897
931.995,0.00020134923193651524
933.118,0.0003241276644362886
934.241,4.7564860561875084e-05
935.364,0.0004048718999256051
936.486,0.00041106079108753786
937.609,0.00038766900616528247
