wavelength,intensity
154.0009,3.076079212324697e-05
154.483,0.00016092136243446695
154.9651,3.232576887613088e-05
155.4472,0.00010599802631336854
155.9293,6.432136690376995e-05
156.4115,0.0002243916689185692
156.8936,0.00037896445877917364
157.3757,0.0005403109077562453
157.8578,0.0007815727830479355
158.3399,0.0011766785732505983
158.8221,0.0016168963503405067
159.3042,0.002036387837035246
159.7863,0.002340391046884963
160.2684,0.002693138011432425
160.7505,0.003164134657054656
161.2326,0.003744170161144412
161.7148,0.004332889905752999
162.1969,0.004930825321791008
162.679,0.005502234771228054
163.1611,0.006005086723905879
163.6432,0.0063646947718336575
164.1253,0.006707967137847454
164.6075,0.007125901667741191
165.0896,0.007622086489925775
165.5717,0.00806365902793191
166.0538,0.008297614697967444
166.5359,0.00844300178211968
167.018,0.008670809145634903
167.5002,0.009105181182708337
167.9823,0.009616280981909075
168.4644,0.010115341155644563
168.9465,0.010596077630373537
169.4286,0.011060745108408257
169.9107,0.011537684955372716
170.3929,0.011998478224488093
170.875,0.012396435607012991
171.3571,0.012672716645830705
171.8392,0.012884581082028272
172.3213,0.013094142327691813
172.8034,0.01330844572144436
173.2856,0.013514297618142568
173.7677,0.013693665248110536
174.2498,0.01385106286479496
174.7319,0.01400145393343376
175.214,0.014177461329633137
175.6961,0.014345337251041847
176.1783,0.014452263477686895
176.6604,0.014480672726821365
177.1425,0.01445840693538503
177.6246,0.014393893356321345
178.1067,0.014295598033151181
178.5888,0.01421325533494303
179.071,0.014235879939220455
179.5531,0.01430230395422184
180.0352,0.014265370475700374
180.5173,0.014046945583097459
180.9994,0.01375361123668358
181.4815,0.013571562208051785
181.9637,0.013496269697288846
182.4458,0.01343399627407089
182.9279,0.013286693905158777
183.41,0.013079707384071172
183.8921,0.012907840882010873
184.3742,0.012808415783273491
184.8564,0.01275676128062295
185.3385,0.012714217714842812
185.8206,0.012683558612218258
186.3027,0.012624868468589033
186.7848,0.012491831334521366
187.2669,0.012289950623186042
187.7491,0.012057910237910384
188.2312,0.011799152842439993
188.7133,0.011523797928658068
189.1954,0.011256778140198239
189.6775,0.011010782844697458
190.1596,0.010837258045452654
190.6418,0.010655558132017597
191.1239,0.010413184906682959
191.606,0.010271133812188431
192.0881,0.010268059658928276
192.5702,0.01036635498209844
193.0524,0.010341053827979362
193.5345,0.010173100325415822
194.0166,0.00993350547518855
194.4987,0.009880376930596232
194.9808,0.010076749379938597
195.4629,0.010281980627398163
195.9451,0.010379437104331722
196.4272,0.010357297382271985
196.9093,0.010280550224855975
197.3914,0.010145908130647753
197.8735,0.010009147101148226
198.3556,0.009962317176563705
198.8378,0.010017307668871952
199.3199,0.010093395386471903
199.802,0.01015406869837148
200.2841,0.010198042666693809
200.7662,0.010230607356433882
201.2483,0.010241303858156128
201.7305,0.010250458434426122
202.2126,0.010323602916964693
202.6947,0.010481926658684903
203.1768,0.010624928122326105
203.6589,0.010687846438893589
204.141,0.010660823952901712
204.6232,0.010623701370315349
205.1053,0.010598240205064436
205.5874,0.01056072971670392
206.0695,0.01042440993002249
206.5516,0.010169919498067774
207.0337,0.009867430575383904
207.5159,0.009551995297487703
207.998,0.009222420854123657
208.4801,0.008914860063442748
208.9622,0.008646152884865354
209.4443,0.008402843836850577
209.9264,0.008126174892258711
210.4086,0.007827477748517178
210.8907,0.007470934156205201
211.3728,0.0070160031131017
211.8549,0.006419020975503671
212.337,0.0058500601812659595
212.8191,0.005327454127039436
213.3013,0.004853823601210712
213.7834,0.00440123550898309
214.2655,0.003953548121329664
214.7476,0.003546784307967075
215.2297,0.0032304956373677405
215.7118,0.0030432641875932725
216.194,0.002828801267591103
216.6761,0.0025492031495221706
217.1582,0.002207574049344127
217.6403,0.0018998042744273924
218.1224,0.0016369258649888544
218.6045,0.0013974609631959242
219.0867,0.0011563857675580447
219.5688,0.0008974450866093687
220.0509,0.0006802285204929368
220.533,0.0005280608434085194
221.0151,0.00044027316033681287
221.4972,0.0003554827282055367
221.9794,0.0002676877719005648
222.4615,0.00018872159950351832
222.9436,0.0001329033162732291
223.4257,0.00011258941820420593
223.9078,9.069393131752079e-05
224.3899,3.87598358826165e-06
224.8721,8.25278844247344e-05
225.3542,0.00012652134501221212
225.8363,0.00013771848762422363
226.3184,1.7891159824223065e-05
226.8005,6.725481219317445e-05
227.2827,4.881429536277489e-05
227.7648,2.759355020517433e-05
228.2469,0.00010077012321867607
228.729,0.0
229.2111,7.167957092895136e-05
229.6932,7.452037462184399e-05
230.1754,0.00010886688044255451
230.6575,7.499064248949303e-05
231.1396,6.218627048814805e-05
231.6217,0.00011762661712268084
232.1038,0.00013527928762813298
232.5859,9.354949967394206e-05
233.0681,0.00012989869512308985
233.5502,2.674542283804143e-05
234.0323,4.600759343625244e-05
234.5144,0.00011808652790616002
234.9965,7.978699071279685e-05
235.4786,0.00011738364264339626
235.9608,0.00012607472000149763
236.4429,3.4026997532185738e-06
236.925,0.00010918447829514161
237.4071,0.00011616746106498563
237.8892,2.170566519610377e-05
238.3713,0.00011965963128501241
238.8535,3.918305562868306e-05
239.3356,2.2395313174324582e-05
239.8177,0.00012218998913802887
240.2998,0.000251389280452678
240.7819,0.0003694515060620873
241.264,0.0004844003029517078
241.7462,0.0005857545540803909
242.2283,0.000649889925014277
242.7104,0.0006400220870020633
243.1925,0.0006535832728664236
243.6746,0.0007266545381901229
244.1567,0.0008775833412083417
244.6389,0.0010308919461509843
245.121,0.001199774483043619
245.6031,0.0013629320155919855
246.0852,0.001474118902283878
246.5673,0.0014941818738052465
247.0494,0.0015291675804582495
247.5316,0.0016199738977761865
248.0137,0.0017848105774444139
248.4958,0.0019456314625857312
248.9779,0.0021102475208449097
249.46,0.0022655751753420145
249.9421,0.00237696086374316
250.4243,0.0024133105440745256
250.9064,0.002463756720238581
251.3885,0.00257689671250333
251.8706,0.002801554766014654
252.3527,0.002917332517543637
252.8348,0.0028663985498685856
253.317,0.002742346283294718
253.7991,0.0027163076233225354
254.2812,0.0026813287050205803
254.7633,0.002928969205885985
255.2454,0.0031109585940050045
255.7275,0.003230855419973267
256.2097,0.003102937187477755
256.6918,0.0032948942993458324
257.1739,0.0033585680624084774
257.656,0.0034169740650581357
258.1381,0.0036538870317393626
258.6202,0.0035619039052790917
259.1024,0.003796079711841457
259.5845,0.0039000879173004457
260.0666,0.004063683298491386
260.5487,0.0040982573401415695
261.0308,0.004172639726981903
261.5129,0.004376043938245212
261.9951,0.004429845014473467
262.4772,0.004605191031327912
262.9593,0.004768642402500198
263.4414,0.004910678465645978
263.9235,0.0050968780860612024
264.4056,0.005341166596155714
264.8878,0.005619455047354667
265.3699,0.005908459395564571
265.852,0.00623250618164695
266.3341,0.006504689965725181
266.8162,0.00666722733391712
267.2983,0.006686540192647723
267.7805,0.006806228519262378
268.2626,0.0070481847458898
268.7447,0.007365472273857577
269.2268,0.007684922376516251
269.7089,0.008009017650820398
270.191,0.008325180252043133
270.6732,0.008633749597736839
271.1553,0.008933978969286273
271.6374,0.009206419740939881
272.1195,0.009425450736314908
272.6016,0.009654969734058577
273.0837,0.010010495073713406
273.5659,0.010521444559426657
274.048,0.011013696986825774
274.5301,0.011395153827482674
275.0122,0.011656602319261244
275.4943,0.012057987819065214
275.9764,0.012651929745158325
276.4586,0.013287018776244629
276.9407,0.013698441337954784
277.4228,0.013847915979202152
277.9049,0.01405808817645998
278.387,0.01448537608433296
278.8691,0.015117473392136115
279.3513,0.01562184302615531
279.8334,0.01593306952640196
280.3155,0.016099694451689028
280.7976,0.01677300189917368
281.2798,0.017380331423297216
281.7619,0.017924970525495583
282.244,0.018220802015330568
282.7261,0.018835036262234015
283.2082,0.019315530295854144
283.6903,0.019695372478726134
284.1725,0.02014354911253721
284.6546,0.020551044128284075
285.1367,0.020926638742929105
285.6188,0.02121567218407207
286.1009,0.021363861887442555
286.583,0.02138926001800517
287.0652,0.021421941079477494
287.5473,0.021473871964992116
288.0294,0.021505083833344832
288.5115,0.021493626066540816
288.9936,0.02142973313671577
289.4757,0.021247121644711455
289.9579,0.020892270291339218
290.44,0.02040440119918802
290.9221,0.019919106831612757
291.4042,0.01945312047394592
291.8863,0.018917597157440128
292.3684,0.018156506633264843
292.8506,0.017212048200825645
293.3327,0.016298040371657392
293.8148,0.015490944222667656
294.2969,0.014749040487846376
294.779,0.013972312512150578
295.2611,0.013158190419826512
295.7433,0.012348218919285876
296.2254,0.01155355030153554
296.7075,0.010779450387459626
297.1896,0.010061315578949516
297.6717,0.009383901179081033
298.1538,0.008768420784878122
298.636,0.008301871963838763
299.1181,0.007966609852061211
299.6002,0.007610420223768147
300.0823,0.007057843599666189
300.5644,0.0064036889997803065
301.0465,0.005820530854208626
301.5287,0.005349744162586654
302.0108,0.0049738343745001305
302.4929,0.004717493147120492
302.975,0.004561914323634624
303.4571,0.004414299690574317
303.9392,0.004252958041931201
304.4214,0.0040543173135744815
304.9035,0.0037555037981007035
305.3856,0.003291058396121685
305.8677,0.0028414819073481375
306.3498,0.0025715862824551862
306.8319,0.002452482238912848
307.3141,0.0023776144849726065
307.7962,0.002305999805830848
308.2783,0.0022397450147234386
308.7604,0.00218641281959969
309.2425,0.002164086417886144
309.7246,0.0021197793354802642
310.2068,0.0019774397360662103
310.6889,0.001780906305827572
311.171,0.0016423502423581551
311.6531,0.001669132226770057
312.1352,0.0017419828706847073
312.6173,0.0017762465877155693
313.0995,0.0017545835048758229
313.5816,0.0017034245518517627
314.0637,0.0016054865868760377
314.5458,0.0014883623174285284
315.0279,0.0014067702168933589
315.51,0.0013644424237000906
315.9922,0.0013783827874586847
316.4743,0.0014776415715953976
316.9564,0.001694920202635694
317.4385,0.001864804021307859
317.9206,0.0019050104547987327
318.4027,0.0018705052664234607
318.8849,0.001839181875160672
319.367,0.001816742011008186
319.8491,0.0018174383018727893
320.3312,0.0018534160775431864
320.8133,0.001932735050241824
321.2954,0.0020185882957060555
321.7776,0.002066740494098219
322.2597,0.0021303526771192173
322.7418,0.0022662714662066174
323.2239,0.0026002292448185837
323.706,0.002883288937039607
324.1881,0.0030444977279550757
324.6703,0.0030742394334237594
325.1524,0.0030902633360717683
325.6345,0.0030662558477094893
326.1166,0.0030525666529396594
326.5987,0.0030901639352171415
327.0808,0.0032372907767664514
327.563,0.0033701169870694234
328.0451,0.003478022190911989
328.5272,0.003554320347394416
329.0093,0.003606298266484155
329.4914,0.003650349815961312
329.9735,0.003664119501179279
330.4557,0.003627336821027517
330.9378,0.0034914180319401164
331.4199,0.0033901421377778122
331.902,0.0033452289525998198
332.3841,0.0033463984885088883
332.8662,0.0033506935751931883
333.3484,0.003393030581148593
333.8305,0.003384943230639737
334.3126,0.003257841539798816
334.7947,0.002951219481091354
335.2768,0.0027202662017477585
335.7589,0.0026032883667299915
336.2411,0.002555060526711868
336.7232,0.002459035906967149
337.2053,0.0023050242228088557
337.6874,0.002134108089895228
338.1695,0.0019448949264970598
338.6516,0.0017273704601723948
339.1338,0.001602229148137595
339.6159,0.0015979529718597848
340.098,0.0016459679485843416
340.5801,0.001640867957418676
341.0622,0.0015821472662097364
341.5443,0.0014741043558173473
342.0265,0.001288211180963704
342.5086,0.0010392450121151338
342.9907,0.0008586782684228176
343.4728,0.0007558725708637006
343.9549,0.0006896182646385081
344.437,0.00058077529858693
344.9192,0.00044283493855753564
345.4013,0.00041399293204377676
345.8834,0.0006267397084128749
346.3655,0.0009604230436896284
346.8476,0.0010743039359830079
347.3297,0.0009637755193427386
347.8119,0.0007673269434921967
348.294,0.0005520518457753964
348.7761,0.00034628936135813
349.2582,0.00024578995757923477
349.7403,0.00032683724445460767
350.2225,0.0004724534354547036
350.7046,0.0004886714364544538
351.1867,0.00039564411613838673
351.6688,0.0003455554436334341
352.1509,0.0005503469998979976
352.6331,0.000842043414180519
353.1152,0.0009467100896911311
353.5973,0.0007245356028988166
354.0794,0.0004504301336154353
354.5615,0.0003838724850748558
355.0436,0.00047028945460537394
355.5258,0.0005436658078204439
356.0079,0.00046764253106722475
356.49,0.00036368169860090426
356.9721,0.0003591453830133033
357.4542,0.0005155435604706245
357.9363,0.0006290128362494067
358.4185,0.0005441395377471273
358.9006,0.00034329671679876774
359.3827,0.00016896643121393963
359.8648,0.00010747541394244888
360.3469,6.241545491716151e-05
360.829,0.00010823304240758986
361.3112,0.00031142424491266673
361.7933,0.0004050860820988032
362.2754,0.000206682121728982
362.7575,0.00015111481353456918
363.2396,0.00033505279782182024
363.7217,0.00022554709475510325
364.2039,0.0001299674999097801
364.686,0.00015589735231231322
365.1681,0.0003070584139128057
365.6502,0.00038761325440789235
366.1323,0.0002812091004466309
366.6144,0.00016766428001833254
367.0966,0.00017346012565460557
367.5787,0.00040566377077295936
368.0608,0.0005424395406919053
368.5429,0.0005859131105655757
369.025,0.0005475298342132173
369.5071,0.0004830886480646339
369.9893,0.0003779298171030662
370.4714,0.000277430413324171
370.9535,0.00020296971800568033
371.4356,0.0001736068995019004
371.9177,0.00011819586884624915
372.3998,5.529848464410316e-05
372.882,0.0001924576654790433
373.3641,0.00026866088202324735
373.8462,0.00026557353996677015
374.3283,0.0002267640036568404
374.8104,0.000162001001180376
375.2925,6.566378756755623e-05
375.7747,8.595401368671175e-05
376.2568,0.00017024016831159008
376.7389,0.000222095121270923
377.221,0.0002034811232806782
377.7031,0.00011519847244115349
378.1852,3.158471368519055e-05
378.6674,9.456731593709562e-05
379.1495,0.00013681457019400553
379.6316,0.00017044381884301997
380.1137,0.00019740588851057205
380.5958,0.00019831033931122963
381.0779,0.00014544207949336772
381.5601,4.639161530384092e-05
382.0422,0.00012112218151823145
382.5243,0.00024440726744726933
383.0064,0.0003497413348423103
383.4885,0.00036815168230112515
383.9706,0.00030808122446280146
384.4528,0.00022821772903369744
384.9349,0.00011741928148639651
385.417,3.584164013895835e-05
385.8991,6.255751086047822e-05
386.3812,0.00028789514134636146
386.8633,0.0005027159529134077
387.3455,0.00046447940192012257
387.8276,0.0002709858437688502
388.3097,0.00014622337021073198
388.7918,0.0002876915393031533
389.2739,0.0004899404701945928
389.756,0.0005664324825876531
390.2382,0.0004896610810607596
390.7203,0.00044717235545944
391.2024,0.0005943844877908415
391.6845,0.0008125431800562457
392.1666,0.0009671944238596724
392.6487,0.0009060250774513973
393.1309,0.0008728033723063515
393.613,0.0010020690924848242
394.0951,0.0012771970813888706
394.5772,0.0014855732749123743
395.0593,0.0015162430449457164
395.5414,0.0014996033418812412
396.0236,0.0015161906776662059
396.5057,0.0016196354499882386
396.9878,0.001706791089089186
397.4699,0.0017669562444246247
397.952,0.0018034266604281949
398.4341,0.0018243895733455963
398.9163,0.0017852387284426345
399.3984,0.0017771843499245822
399.8805,0.0018427476989895661
400.3626,0.0020219742282321864
400.8447,0.0021529253989993505
401.3268,0.002205959391559219
401.809,0.0022324431734072414
402.2911,0.002317264589512228
402.7732,0.002497424032141684
403.2553,0.0026326416815423046
403.7374,0.002661199304635388
404.2195,0.0025931737236689735
404.7017,0.0026286404334819246
405.1838,0.002801479124388694
405.6659,0.0029875197034365153
406.148,0.003061459392812098
406.6301,0.0030219444013636506
407.1122,0.002997610102386649
407.5944,0.0030099455060046882
408.0765,0.003052448341678543
408.5586,0.003120364824145977
409.0407,0.0032134539669448
409.5228,0.003294671738407913
410.0049,0.0033320086389344956
410.4871,0.003337406347781823
410.9692,0.003352502185865173
411.4513,0.003389228134797466
411.9334,0.003404769094756655
412.4155,0.003336677569808635
412.8976,0.0032056502725332932
413.3798,0.0030736144202451565
413.8619,0.002980269744517611
414.344,0.002892124460810358
414.8261,0.0027886137445067194
415.3082,0.002667942561636806
415.7903,0.0024909416417733836
416.2725,0.0021544644151582993
416.7546,0.001775720975391593
417.2367,0.001482594643449103
417.7188,0.0013866742733811873
418.2009,0.0013125357822963517
418.683,0.0011841981266825382
419.1652,0.001001562390567338
419.6473,0.0008113077001655709
420.1294,0.0005953455243463035
420.6115,0.0004252437511172866
421.0937,0.0003399158270477008
421.5758,0.00039119779469038915
422.0579,0.000430968561508668
422.54,0.0005023939911208614
423.0221,0.0005388974760916782
423.5042,0.0004277202385559176
423.9864,0.0002005406035597176
424.4685,0.0005692263739259842
424.9506,0.0005053629249397787
425.4327,0.00010425550508765517
425.9148,0.00039795962268074467
426.3969,0.0003358293851816729
426.8791,0.0001352566921167886
427.3612,9.011149079763129e-05
427.8433,0.00021475085276067798
428.3254,0.0003120303476847795
428.8075,0.0003900802866432785
429.2896,0.0004389425950432491
429.7718,0.0004079082420704257
430.2539,0.00028439114000022305
430.736,0.00017763656166023677
431.2181,0.00015049925555921147
431.7002,0.00019347572418330572
432.1823,0.0002530205696976532
432.6645,0.00033716470232097003
433.1466,0.0003936932410237319
433.6287,0.00032886865850562086
434.1108,0.00016791520656598722
434.5929,3.6836026893353116e-05
435.075,0.00010343154473513416
435.5572,0.00012377860874784733
436.0393,0.00015195293244784676
436.5214,0.00018760884330214103
437.0035,0.00021502549004877772
437.4856,0.000197566917895067
437.9677,0.00017077053248129966
438.4499,0.00018838538217377194
438.932,0.00028526712821470217
439.4141,0.0004047404095658119
439.8962,0.0005016600249079438
440.3783,0.0005837301708215342
440.8604,0.000680820076798519
441.3426,0.0008343109974550129
441.8247,0.000982915275121625
442.3068,0.0010890826610959882
442.7889,0.0011404258693627708
443.271,0.0011756986262886464
443.7531,0.0011739322003696008
444.2353,0.0011872334893652792
444.7174,0.001265051266717948
445.1995,0.001525400530509014
445.6816,0.001726532098818008
446.1637,0.0017603036603979147
446.6458,0.0016578436838600107
447.128,0.0017374230383095483
447.6101,0.002162405331237412
448.0922,0.002589840158422353
448.5743,0.002809770610311197
449.0564,0.00270698382315857
449.5385,0.0027238979695582578
450.0207,0.0029339266416796503
450.5028,0.0032117161490765977
450.9849,0.0032728850106026556
451.467,0.0030527989115219324
451.9491,0.002942189519551309
452.4312,0.0031368954287114724
452.9134,0.003590549292053577
453.3955,0.003965295847699862
453.8776,0.004262598955065536
454.3597,0.004464118429148682
454.8418,0.0044796642379300484
455.3239,0.004362293163433735
455.8061,0.004335141698771953
456.2882,0.004470567847526179
456.7703,0.004684526974904169
457.2524,0.0048876562579500465
457.7345,0.0050737055648777864
458.2166,0.005222166802290179
458.6988,0.005293381453602342
459.1809,0.00533228355392763
459.663,0.005382187631772308
460.1451,0.0054484225427087925
460.6272,0.005525993999894875
461.1093,0.005590808205933527
461.5915,0.005670881655362892
462.0736,0.005799443326561278
462.5557,0.006004805492219619
463.0378,0.0062435711938546405
463.5199,0.006511909861946588
464.002,0.006803605306464673
464.4842,0.007087891750696453
464.9663,0.007249299343321175
465.4484,0.007479603850257502
465.9305,0.00789366902005407
466.4126,0.008676496814048409
466.8947,0.009331116900863275
467.3769,0.0097857279217031
467.859,0.010141418121311942
468.3411,0.010561796457582838
468.8232,0.011036617369255992
469.3053,0.011593979780846553
469.7874,0.012240560520492114
