wavelength,intensity
148.1458,0.0
148.6279,0.0007585565297056367
149.11,0.0014144188847622253
149.5921,0.0018975492229999363
150.0742,0.0022575199628265476
150.5564,0.0026889041556745754
151.0385,0.0031860902596386907
151.5206,0.0036431557542644637
152.0027,0.0036513124429304483
152.4848,0.0035540634955860614
152.9669,0.003344780572315477
153.4491,0.0025280687240667272
153.9312,0.0015504700466950551
154.4133,0.0008470712936627699
154.8954,0.0005729567085936961
155.3775,0.0005022153023259983
155.8596,0.00031725218005410646
156.3418,1.2832330310016994e-05
156.8239,0.00020737709371395304
157.306,0.00024752907493177993
157.7881,0.00012551064682001425
158.2702,0.0001223048965259771
158.7523,0.000553094963192669
159.2345,0.0010350315214104266
159.7166,0.001424374486455841
160.1987,0.0017287142045646349
160.6808,0.002042334083437802
161.1629,0.002481870116129638
161.6451,0.0029953172301462132
162.1272,0.003293406331586762
162.6093,0.0032883892552803213
163.0914,0.0031725004657234867
163.5735,0.003050401789604693
164.0556,0.0029262476977651108
164.5378,0.002811140053460975
165.0199,0.0027154587303263806
165.502,0.0026419995592285293
165.9841,0.0025715568404069285
166.4662,0.0025129563999879766
166.9483,0.002438813060080964
167.4305,0.0023518184018762895
167.9126,0.002256731544340583
168.3947,0.002142544691367841
168.8768,0.001988403058775207
169.3589,0.001795534368337872
169.841,0.00162760850406074
170.3232,0.0015165612634475422
170.8053,0.0014094115061001385
171.2874,0.0012534704755976555
171.7695,0.0010467346386165979
172.2516,0.0008543314351082456
172.7337,0.0007353529760602888
173.2159,0.0006907525399127063
173.698,0.0006774003382841707
174.1801,0.000705652970462327
174.6622,0.0007498994425909956
175.1443,0.0008264220995402139
175.6264,0.0009296966782038374
176.1085,0.0009721510256559228
176.5907,0.0008141841572479303
177.0728,0.00042042696995732936
177.5549,0.00015066507558001717
178.037,0.00014647564473095184
178.5191,0.00022793488753847439
179.0012,0.00030957644605984845
179.4834,0.0003785466745627674
179.9655,0.00045105174292086984
180.4476,0.0005450769508409434
180.9297,0.000662933392437165
181.4118,0.0007839595090904277
181.8939,0.0008827731713513012
182.3761,0.0010017055665885774
182.8582,0.0011593679289638606
183.3403,0.001359565614121583
183.8224,0.001603035158150417
184.3045,0.0018997985916078012
184.7866,0.0022594517335818255
185.2688,0.002631751573557646
185.7509,0.003032623583093081
186.233,0.003429876431755676
186.7151,0.0038083687025336184
187.1972,0.004171625489149517
187.6793,0.004519762678453399
188.1615,0.004853457650903376
188.6436,0.005184704937918454
189.1257,0.005544216009402694
189.6078,0.005884889406729671
190.0899,0.006225034282439364
190.572,0.006585844838267015
191.0542,0.006951955156734019
191.5363,0.007269931217450915
192.0184,0.007488918573426352
192.5005,0.007603913240173767
192.9826,0.007719819485490438
193.4647,0.00791186193662883
193.9469,0.008061176566744356
194.429,0.008114159646671368
194.9111,0.008068003708369435
195.3932,0.007948630555196278
195.8753,0.007761209031592475
196.3574,0.007491071450472897
196.8396,0.007269150557080434
197.3217,0.007166908292658273
197.8038,0.0070622076753924234
198.2859,0.006902686274594515
198.768,0.006686976722410665
199.2501,0.006446669095323388
199.7323,0.006201769633634587
200.2144,0.0059446365935934605
200.6965,0.005728073648706475
201.1786,0.005617370189585619
201.6607,0.005494661046754753
202.1428,0.005286990841740207
202.625,0.0050123681001069936
203.1071,0.004755915834699503
203.5892,0.004597045630719955
204.0713,0.004542907076468188
204.5534,0.004506342108432168
205.0355,0.004509900659027797
205.5177,0.004511596777025277
205.9998,0.0045691838136092565
206.4819,0.004609588079044947
206.964,0.0046260023118781975
207.4461,0.00458811846421006
207.9282,0.004491419373300534
208.4104,0.004495778949319787
208.8925,0.004696223924408532
209.3746,0.004913107861323628
209.8567,0.00511006216932722
210.3388,0.005271207925554391
210.8209,0.0053729022730705615
211.303,0.005362894304097435
211.7852,0.005248748181230979
212.2673,0.005271484308418473
212.7494,0.005595691105632689
213.2315,0.005887507770705198
213.7136,0.0060276290339733194
214.1957,0.006040589935652179
214.6779,0.005991151344736483
215.16,0.005939230156866215
215.6421,0.0058894812413311974
216.1242,0.005802052128659472
216.6063,0.0056568396021056035
217.0884,0.005479329071031388
217.5706,0.005282505681226572
218.0527,0.005060419927880095
218.5348,0.004800034297922703
219.0169,0.004482896113677975
219.499,0.004125293053720345
219.9811,0.0038051820565989584
220.4633,0.003545206152115514
220.9454,0.0032905959542530294
221.4275,0.0030369962509322118
221.9096,0.0027743525244870353
222.3917,0.0024822061395064973
222.8738,0.0021378830337269675
223.356,0.001771826537186126
223.8381,0.001477304714221124
224.3202,0.0012925723473966309
224.8023,0.001112241256462112
225.2844,0.0008851350326336703
225.7665,0.0006492601987805184
226.2487,0.00045273273259315835
226.7308,0.00031758602146098616
227.2129,0.00022460015857453164
227.695,0.00014406898033166818
228.1771,8.850637549476698e-05
228.6592,1.3951016620916643e-05
229.1414,0.00011996456401407345
229.6235,0.0002647165494375801
230.1056,0.0003757328060770675
230.5877,0.0004380738218761692
231.0698,0.0004646748482444291
231.5519,0.0004734858369749653
232.0341,0.00046348751715797107
232.5162,0.00043717291071570076
232.9983,0.0003908285471839737
233.4804,0.00033005253723068903
233.9625,0.0002539286474172991
234.4446,0.00016228518095051986
234.9268,7.154378936153159e-05
235.4089,4.414367709851815e-06
235.891,3.7600865557071145e-05
236.3731,9.881841410660678e-05
236.8552,0.00020176356379153154
237.3373,0.0003197559178733718
237.8195,0.00042934569951663627
238.3016,0.0005279203633324102
238.7837,0.000642307957543276
239.2658,0.0007960059229067238
239.7479,0.0009886200501797713
240.23,0.001202542326509216
240.7122,0.0014334437234555192
241.1943,0.0016887371203627292
241.6764,0.0019799234385522403
242.1585,0.0023054932396803832
242.6406,0.0026315149510354138
243.1227,0.0029208330180401643
243.6049,0.0031844746320893466
244.087,0.00348177143598619
244.5691,0.003808224207632747
245.0512,0.004191994906232466
245.5333,0.00463398298829916
246.0154,0.0051363621808147375
246.4975,0.005713527182175768
246.9797,0.006390107584629824
247.4618,0.007148143350833662
247.9439,0.007940916079112827
248.426,0.008764769757545936
248.9081,0.00962785525621236
249.3902,0.010503678610737508
249.8724,0.011412944291816749
250.3545,0.01243084298494731
250.8366,0.01353174866492426
251.3187,0.014773692035560766
251.8008,0.01628655364768733
252.2829,0.01811028779604163
252.7651,0.01998902698317071
253.2472,0.02172777097640827
253.7293,0.023395722165863053
254.2114,0.025152271034134196
254.6935,0.026998295218035716
255.1756,0.028966446686106873
255.6578,0.031157561544338526
256.1399,0.03356934145101882
256.622,0.03589891442651193
257.1041,0.037990410233119117
257.5862,0.03985893780074364
258.0684,0.04165207103233951
258.5505,0.04346937079366506
259.0326,0.04508498379654236
259.5147,0.046386213715935855
259.9968,0.047372255647364164
260.4789,0.048020480137727695
260.9611,0.048355436773708106
261.4432,0.048297983079733986
261.9253,0.04770296956393978
262.4074,0.046467727265551755
262.8895,0.04502147392366929
263.3716,0.04351261258983868
263.8537,0.04191792710347688
264.3358,0.04014527529675625
264.818,0.038146135006152514
265.3001,0.03603156365480544
265.7822,0.03398030337462218
266.2643,0.03196364428949328
266.7464,0.030041799073211545
267.2285,0.028229377226995964
267.7107,0.026515003414019512
268.1928,0.02488605615015573
268.6749,0.023342215413140938
269.157,0.021879781551654154
269.6391,0.020509688659704296
270.1212,0.019248975498421004
270.6034,0.018038389460802527
271.0855,0.016846854445517097
271.5676,0.015718839000749083
272.0497,0.01470484360947093
272.5318,0.01380171168844547
273.0139,0.012983865700689542
273.4961,0.012227206999983947
273.9782,0.011540715605000302
274.4603,0.01088305045785834
274.9424,0.01026127629246981
275.4245,0.00966158851209707
275.9066,0.009048527680160432
276.3888,0.008448408354613949
276.8709,0.007929981985103913
277.353,0.007545547967630394
277.8351,0.007282329655757255
278.3172,0.007004264250378441
278.7993,0.006693294737707169
279.2815,0.006379411082907578
279.7636,0.0060539096501721285
280.2457,0.005734047397628418
280.7278,0.005438550476523641
281.2099,0.005175312769361794
281.692,0.004935921569665953
282.1742,0.004698935870652073
282.6563,0.00443427406441687
283.1384,0.004225482326832806
283.6205,0.004139164079321809
284.1026,0.004072011286347237
284.5847,0.003922189469432005
285.0669,0.0036674013197956277
285.549,0.0033714689744593646
286.0311,0.0031322717276505993
286.5132,0.0029608406498217847
286.9953,0.002794518291038554
287.4774,0.0026345323730760997
287.9596,0.002479315271724628
288.4417,0.0023159613618780974
288.9238,0.00215426090039389
289.4059,0.0020302420906930436
289.888,0.002003467379514407
290.3701,0.0020839951635817466
290.8523,0.0020839684950597734
291.3344,0.0019421845706671923
291.8165,0.0017858309053974553
292.2986,0.001638271064027748
292.7807,0.0015102020331625348
293.2628,0.0014318523400170596
293.745,0.0014385960819006953
294.2271,0.0015014397266066546
294.7092,0.0015156414418805839
295.1913,0.001460643191456852
295.6734,0.0013970024003850101
296.1555,0.0013511068438339772
296.6377,0.0013131328080733494
297.1198,0.0012691496269888868
297.6019,0.001209886352578352
298.084,0.0011511385079652219
298.5661,0.0011115231458977129
299.0482,0.0010911808822189548
299.5304,0.0010919072357810547
300.0125,0.0011223680215785724
300.4946,0.0011712393002995703
300.9767,0.0012322316646983884
301.4588,0.0013126023469271963
301.9409,0.00137172306596573
302.4231,0.0013541712994497794
302.9052,0.0012841189108134194
303.3873,0.001267568426076999
303.8694,0.0013460975256430194
304.3515,0.0014613380276748023
304.8336,0.0015460357988142778
305.3158,0.0016019073221120697
305.7979,0.001644202143314535
306.28,0.0016716387187203187
306.7621,0.0016908274476031917
307.2442,0.001709030895819718
307.7263,0.0017269230496524874
308.2085,0.0017491728399756388
308.6906,0.0017838055523741632
309.1727,0.0018306766919471888
309.6548,0.0018621891872748766
310.1369,0.0018677401189029941
310.619,0.0018655528152189936
311.1012,0.0018631482843014678
311.5833,0.0018625334536494366
312.0654,0.001870597529811843
312.5475,0.0018948067291766804
313.0296,0.0019298481972847175
313.5117,0.0019408167179310882
313.9939,0.001930063484989372
314.476,0.0018973732107549148
314.9581,0.0017980688476897388
315.4402,0.0016881974464544398
315.9223,0.001672841711502408
316.4044,0.0017949752991408754
316.8866,0.0019640285145741372
317.3687,0.00199273742091914
317.8508,0.0017527871520263015
318.3329,0.0015676043296215746
318.815,0.0014486578727999854
319.2971,0.0013720935159800456
319.7793,0.0013346004833793667
320.2614,0.0013274848368347624
320.7435,0.0013205190188954248
321.2256,0.001273897108782292
321.7077,0.0011738644526261453
322.1898,0.001119784569122719
322.672,0.0011723719851600945
323.1541,0.0012132989536264558
323.6362,0.001193291258677904
324.1183,0.0011284523236461494
324.6004,0.001061747076958505
325.0826,0.001024365082385677
325.5647,0.0010053693366254446
326.0468,0.0009542908740495209
326.5289,0.0008428164522025381
327.011,0.000752406283656454
327.4931,0.000720751717838983
327.9753,0.0007151532677535318
328.4574,0.00070585177217158
328.9395,0.0006863449605539022
329.4216,0.0006458136559771763
329.9037,0.0005609330842416315
330.3858,0.00042794938419435374
330.868,0.00029948934430879513
331.3501,0.00016117659473621475
331.8322,5.9023985036104646e-05
332.3143,5.474160226590811e-05
332.7964,0.00015156060454786925
333.2785,0.00022709143492080224
333.7606,0.00019225061107444523
334.2427,8.153502989814753e-05
334.7249,1.86909294029035e-05
335.207,0.00010139197496521943
335.6891,0.00016113513730660223
336.1712,0.00018132771784475928
336.6533,0.0001699798738394896
337.1354,0.00016502922639687244
337.6176,0.00018582257600274765
338.0997,0.0002066094281869059
338.5818,0.0001973462383001518
339.0639,0.00016195196989052317
339.546,0.00013571140496289414
340.0281,0.00014009260672905594
340.5103,0.00016919261907084776
340.9924,0.00019648678456929587
341.4745,0.00021969567191903853
341.9566,0.00024411322517281763
342.4387,0.0002847404394522027
342.9208,0.0003238843990276734
343.403,0.0003293103280200706
343.8851,0.00029004029906800043
344.3672,0.00023170940467386218
344.8493,0.00019696327832462006
345.3314,0.00019802216411161198
345.8135,0.0001978665169197334
346.2957,0.00020352446205329535
346.7778,0.00020288994518322592
347.2599,0.00018062808129285405
347.742,0.00014085319297572484
348.2241,0.00010771110549082374
348.7062,0.00011121394311963971
349.1884,0.0001514677011149598
349.6705,0.00012434814170310193
350.1526,5.9945600667268464e-05
350.6347,0.00021485455936939756
351.1168,0.00027460300692695315
351.5989,0.00028352823390797715
352.0811,0.0003067791605459935
352.5632,0.00037461059467244523
353.0453,0.0004690530922290631
353.5274,0.0005583326609081589
354.0095,0.0006436273220576111
354.4916,0.0007183345799837972
354.9738,0.000756062780460056
355.4559,0.0007977650755925039
355.938,0.0008790706107370186
356.4201,0.001003190275939145
356.9022,0.00113227707457929
357.3843,0.0012411006453421603
357.8665,0.0013299931325468739
358.3486,0.0013956912788683758
358.8307,0.0014244297630286577
359.3128,0.0014569207506716444
359.7949,0.0015280529720068006
360.277,0.0016297802915137747
360.7592,0.0017436306362274394
361.2413,0.0018704525500287535
361.7234,0.0020041350623281663
362.2055,0.002142967508661667
362.6876,0.002285648950039193
363.1697,0.0024182302948222312
363.6519,0.002531836743780398
364.134,0.0026313360294970855
364.6161,0.002732185227307823
365.0982,0.0028398310191639236
365.5803,0.002941684408047497
366.0624,0.0030185634534267173
366.5446,0.0030931965243735974
367.0267,0.0032034034641035374
367.5088,0.003357950458230161
367.9909,0.003528398679803718
368.473,0.0036737741267827305
368.9551,0.003784251630790142
369.4373,0.0039036863640049455
369.9194,0.004042625969308556
370.4015,0.004179772965053365
370.8836,0.0042954658621942535
371.3657,0.00439802814888009
371.8478,0.004511927466697742
372.33,0.004656237627444489
372.8121,0.004824412236299296
373.2942,0.004983905513928577
373.7763,0.005129709596788028
374.2584,0.0052730989662033816
374.7405,0.005419722500010729
375.2227,0.005563252485269212
375.7048,0.005700716593984392
376.1869,0.005830737760658026
376.669,0.005949829682144922
377.1511,0.0060563195147940495
377.6332,0.006150221805071939
378.1154,0.006216975539981353
378.5975,0.006214323234250587
379.0796,0.006231875970530972
379.5617,0.006356597374565253
380.0438,0.006564456683644699
380.5259,0.0067403089175344134
381.0081,0.006790843342262088
381.4902,0.006793481101526323
381.9723,0.006883198858265545
382.4544,0.0070686808529985875
382.9365,0.007248460632851593
383.4186,0.00735645360037556
383.9008,0.007416986296432007
384.3829,0.007511324980705818
384.865,0.0076540015732611665
385.3471,0.0078066909836118185
385.8292,0.00795376060905944
386.3113,0.008100461724021618
386.7935,0.008253054157928734
387.2756,0.008413395009674538
387.7577,0.00858654160078954
388.2398,0.008778065227955002
388.7219,0.008987461613664526
389.204,0.009227318300289349
389.6862,0.009527581613594021
390.1683,0.009831627008196678
390.6504,0.010107762582349085
391.1325,0.01035973162677181
391.6146,0.010598511874873363
392.0967,0.010831536571050931
392.5789,0.01105956698038629
393.061,0.011292727443584814
393.5431,0.011481453300354202
394.0252,0.011766680416088299
394.5073,0.01224991403423838
394.9894,0.0127860192094054
395.4716,0.013239345292368348
395.9537,0.013574874089365628
396.4358,0.01386523125896289
396.9179,0.014176530491542192
397.4,0.0145077923250238
397.8821,0.014884317913526792
398.3643,0.015341702460651804
398.8464,0.015795993459227956
399.3285,0.01617531196930484
399.8106,0.016505157946710793
400.2927,0.01686816986780676
400.7748,0.01733593574321252
401.257,0.017829861014262666
401.7391,0.018269620092774642
402.2212,0.018656366998426543
402.7033,0.01898884588627455
403.1854,0.019246953539573234
403.6675,0.0194618000014096
404.1497,0.019702694335980278
404.6317,0.019965825369054235
405.1139,0.020262408426326636
405.596,0.02066048218058378
406.0781,0.021062047086808297
406.5602,0.021346411112194905
407.0423,0.021492375206186194
407.5244,0.021573365083006994
408.0066,0.021664256254713025
408.4887,0.021765359045923614
408.9708,0.02181019610459343
409.4529,0.021774770609768984
409.935,0.021715125248170906
410.4171,0.02166418837120255
410.8993,0.0215965182089017
411.3814,0.02147322235858743
411.8635,0.021276379573493907
412.3456,0.021016172380192624
412.8277,0.020704140975464608
413.3098,0.020325991031532358
413.792,0.019944616620852465
414.2741,0.019589372512883896
414.7562,0.0192188934056355
415.2383,0.01879898055629359
415.7204,0.018334865843987035
416.2025,0.01787297674105968
416.6847,0.01746140871468422
417.1668,0.017070753658357734
417.6489,0.016618731908560374
418.131,0.01609186373964035
418.6131,0.015565155581852168
419.0952,0.015079177530349963
419.5774,0.01462352886156428
420.0595,0.014173223594817543
420.5416,0.013738429710214719
421.0237,0.013286407960417359
421.5058,0.012761988446696673
421.9879,0.012217999086670008
422.4701,0.011766360393824624
422.9522,0.01143793997013868
423.4343,0.0111374051227921
423.9164,0.010742997078100695
424.3985,0.01021859211084654
424.8806,0.00977308232923276
425.3628,0.00947682414304621
425.8449,0.009177690605308755
426.327,0.008771490225083122
426.8091,0.008313315319943273
427.2912,0.007922151137288214
427.7733,0.007667170974293633
428.2555,0.007496337271357013
428.7376,0.0072747557955169335
429.2197,0.006975069492051312
429.7018,0.006693692341125675
430.1839,0.006429155149620418
430.666,0.006198065133491433
431.1482,0.006036696331444126
431.6303,0.005934706205775165
432.1124,0.005812835909180903
432.5945,0.005607624057010045
433.0766,0.005340822465548176
433.5587,0.005059571383999137
434.0409,0.004753218434922493
434.523,0.004487989801374811
435.0051,0.004319765249651581
435.4872,0.004216378663195671
435.9693,0.004102222357802644
436.4514,0.003979308109793696
436.9336,0.003835783943121824
437.4157,0.003650320373913054
437.8978,0.0034437140004841198
438.3799,0.003246683081090132
438.862,0.003066850449075399
439.3441,0.002908845759854426
439.8263,0.0027797672042119822
440.3084,0.002686413315722301
440.7905,0.002583536825359401
441.2726,0.002479033070273933
441.7547,0.002358135932290576
442.2368,0.0021923139719560013
442.719,0.002011940211386326
443.2011,0.001871849495697919
443.6832,0.0017990274598341123
444.1653,0.001758464153031019
444.6474,0.0016773118406672941
445.1295,0.0015401585414536547
445.6117,0.0014238668147739195
446.0938,0.0013507460914640157
446.5759,0.0012928181826809997
447.058,0.0012470326943933823
447.5401,0.0012061988233128178
448.0222,0.001145080874419618
448.5044,0.0010390070707132688
448.9865,0.0009077678799087969
449.4686,0.0007749756113610632
449.9507,0.0006374353761377069
450.4328,0.0005437658293243091
450.9149,0.0005318983370463408
451.3971,0.0005711194898708678
451.8792,0.0005946071844957823
452.3613,0.0005996533537352845
452.8434,0.0005873741964544972
453.3255,0.0005275882190132924
453.8076,0.00046230251350615794
454.2898,0.00045069244519756137
454.7719,0.0004961756094224488
455.254,0.0005459827108235888
455.7361,0.0005515108529874751
456.2182,0.0005123590383200778
456.7003,0.00048470702974497424
457.1825,0.000473603033006981
457.6646,0.0004703061733442399
458.1467,0.00047639144517625225
458.6288,0.000492104053440504
459.1109,0.0005270601822782278
459.593,0.0005798177919740127
460.0752,0.000620895073927858
460.5573,0.0006024050603206765
461.0394,0.0005245775853236537
461.5215,0.0004947471464091333
462.0036,0.0005465388707272795
462.4857,0.0006084112963512054
462.9679,0.0006254069029634654
463.45,0.0006189332404750832
463.9321,0.0006404741329959716
464.4142,0.0007278935480233424
464.8963,0.0008118673900118065
465.3784,0.0008274932043590916
