wavelength,intensity
183.9849,0.0
184.467,1.0549975164882572e-05
184.9491,5.189757410626786e-06
185.4312,0.00027291673203849184
185.9134,0.0003423344098518954
186.3955,0.00013747167287777497
186.8776,3.0229375759125012e-05
187.3597,8.894558180755078e-05
187.8418,0.0004529481657624781
188.3239,0.0007807171017007331
188.8061,0.0009129803637489668
189.2882,0.0010453566033539223
189.7703,0.0014161023958220457
190.2524,0.00205313531971907
190.7345,0.0027220831911844642
191.2166,0.0032473851905413472
191.6988,0.0036491173811309644
192.1809,0.004063824534983755
192.663,0.004518704665454398
193.1451,0.005008605414097717
193.6272,0.005522658146004188
194.1093,0.006062884820021576
194.5915,0.006625818528293397
195.0736,0.007250429254655415
195.5557,0.00792042010777106
196.0378,0.008496615344696711
196.5199,0.008970679840110267
197.002,0.009311120493972752
197.4842,0.009498105623580633
197.9663,0.009537255013836942
198.4484,0.009511532012188476
198.9305,0.009488878314977987
199.4126,0.009454388642833683
199.8947,0.009309035500436684
200.3769,0.008958596575245427
200.859,0.008594081519274622
201.3411,0.00840033713155214
201.8232,0.008342456741226457
202.3053,0.008225517696786104
202.7874,0.00787751772914983
203.2696,0.007352157543926824
203.7517,0.006914211924909013
204.2338,0.006622356469259089
204.7159,0.006370406820125071
205.198,0.006022804455907301
205.6801,0.005632590642398916
206.1623,0.005379957309337954
206.6444,0.005454638868506603
207.1265,0.005751706807996697
207.6086,0.006033243970054172
208.0907,0.006372583941282499
208.5728,0.006654858124310865
209.0549,0.006686050597374877
209.5371,0.006521607642067414
210.0192,0.006448574682438911
210.5013,0.00663354755084338
210.9834,0.006999294207647116
211.4655,0.007302098303772485
211.9476,0.007453851891442995
212.4298,0.007728435842498793
212.9119,0.008477200660700393
213.394,0.009411432927168504
213.8761,0.010025109559521609
214.3582,0.009986488690882584
214.8403,0.009559831129892598
215.3225,0.009312996988155213
215.8046,0.009325230566507537
216.2867,0.009306024381864827
216.7688,0.009165335806402008
217.2509,0.008902398726215129
217.733,0.008480910009665724
218.2152,0.007833233436208181
218.6973,0.007097085253310881
219.1794,0.006494900329517036
219.6615,0.006058094183710796
220.1436,0.005646114007450296
220.6257,0.005196346959965196
221.1079,0.004746239525163278
221.59,0.004345094042057066
222.0721,0.0040274016374375185
222.5542,0.0037071897848148525
223.0363,0.003242952882189441
223.5184,0.0026003704813109523
224.0006,0.0020273948623107667
224.4827,0.0016550581712864013
224.9648,0.0013637501476602499
225.4469,0.0010362461513657407
225.929,0.0006406506301232108
226.4111,0.0002952857064107515
226.8933,0.00018251267300835064
227.3754,0.0003166318702330154
227.8575,0.00034199348916463736
228.3396,4.081723477167572e-05
228.8217,0.00030392267091335865
229.3038,0.00045931224486966233
229.786,0.00040207345069442777
230.2681,0.0002727652063454637
230.7502,0.00014143029979121974
231.2323,1.458435037837491e-05
231.7144,6.572428147303526e-06
232.1965,0.00017916019735524043
232.6787,0.0003888338872050615
233.1608,0.0005234642957518369
233.6429,0.0005728238508660489
234.125,0.00048031748800466816
234.6071,0.00010968564285770188
235.0892,0.0004658468085645864
235.5714,0.0008791709813560804
236.0535,0.0010324582514811445
236.5356,0.0011111376645346492
237.0177,0.0012552388410455718
237.4998,0.0014460099310091789
237.9819,0.0016194498758658842
238.4641,0.001661763122592622
238.9462,0.0016676539566553405
239.4283,0.0019064206280547966
239.9104,0.0024620272811351008
240.3925,0.003069285527572639
240.8746,0.003567539827062326
241.3568,0.003985106816235053
241.8389,0.004329903651941266
242.321,0.004589807793856492
242.8031,0.004857118511646937
243.2852,0.005285385881599653
243.7673,0.005902151213679442
244.2495,0.006548431326350037
244.7316,0.007131880401252331
245.2137,0.0076898731597258895
245.6958,0.008285158209562002
246.1779,0.008960943405179047
246.66,0.009638265677426169
247.1422,0.010157167231509542
247.6243,0.01051122337804477
248.1064,0.011080315090481255
248.5885,0.012116164123310706
249.0706,0.01344235577927089
249.5527,0.014805422727886415
250.0349,0.016228896303181785
250.517,0.017581126134231934
250.9991,0.01867770181600491
251.4812,0.01957904937046927
251.9633,0.02063997651159766
252.4454,0.021977247726232066
252.9276,0.023549289213027725
253.4097,0.025254387229179755
253.8918,0.027083760557725794
254.3739,0.029093539164185656
254.856,0.03147506726930426
255.3382,0.0340601537782314
255.8203,0.03636344128870351
256.3024,0.03817005909477335
256.7845,0.03991734186386443
257.2666,0.042198256908812314
257.7487,0.044958298619526445
258.2308,0.04768954802415412
258.713,0.05037101942031372
259.1951,0.052889788588327366
259.6772,0.05505895767738637
260.1593,0.056841724127168015
260.6414,0.058407505784533284
261.1235,0.0599965617883477
261.6057,0.06154653628541627
262.0878,0.06257744436844746
262.5699,0.06300491653156318
263.052,0.06289557559147402
263.5341,0.06224971247751064
264.0162,0.06108492841417518
264.4984,0.059528165566058944
264.9805,0.057612250459299554
265.4626,0.05535105072532295
265.9447,0.05298870456073617
266.4268,0.05048297872437839
266.9089,0.04792416798282789
267.3911,0.04538050496175802
267.8732,0.04283290469708052
268.3553,0.040175997434069105
268.8374,0.03729528308583841
269.3195,0.034354850643676986
269.8016,0.031883599932996984
270.2838,0.030125184268187735
270.7659,0.028371045264538514
271.248,0.026371871032179535
271.7301,0.024285456791213734
272.2122,0.022318483586931562
272.6943,0.02052600979515175
273.1765,0.018917054225123336
273.6586,0.01751322807728877
274.1407,0.0163920688670789
274.6228,0.015304153181713874
275.1049,0.014164127204413676
275.587,0.013085986744557281
276.0692,0.012209751240147096
276.5513,0.011541069569019215
277.0334,0.010924357573983372
277.5155,0.010171505198686641
277.9976,0.009221286365501284
278.4797,0.00849672686760678
278.9619,0.008058514563369238
279.444,0.007728755864762469
279.9261,0.007446278031202675
280.4082,0.00720059790914339
280.8903,0.007019256808549423
281.3724,0.0069481536801473285
281.8546,0.00698257061995898
282.3367,0.006841440801678063
282.8188,0.006254374505431799
283.3009,0.005788567554185507
283.783,0.005672346135427337
284.2651,0.005740530272878936
284.7473,0.0057179347615345716
285.2294,0.005453901847535713
285.7115,0.0050366364551023895
286.1936,0.004761221415925471
286.6757,0.004819464013267767
287.1578,0.004766979392260542
287.64,0.004455442567394572
288.1221,0.004090909570781714
288.6042,0.003866405224933397
289.0863,0.0038215157989840713
289.5684,0.003852332488329374
290.0505,0.00380143876587839
290.5327,0.0036544588436410405
291.0148,0.0034581004558829885
291.4969,0.0031236262777091825
291.979,0.002814930862638877
292.4611,0.002661643592513813
292.9432,0.002636281828117526
293.4254,0.0026004272125304223
293.9075,0.0024158878288285703
294.3896,0.0020790648811922726
294.8717,0.0018004282845610195
295.3538,0.0015326632321325992
295.8359,0.0013902290806860954
296.3181,0.0014909749985844644
296.8002,0.0017319008504992953
297.2823,0.0019211372882439127
297.7644,0.0019320471381419429
298.2465,0.0018440676841531398
298.7286,0.001894336393425521
299.2108,0.0021599417804563487
299.6929,0.0023790857533880997
300.175,0.0024134823281466086
300.6571,0.0023803740854405025
301.1392,0.002394598590178663
301.6213,0.0024917452273751175
302.1035,0.002620239015063027
302.5856,0.002748732802750937
303.0677,0.0028819619501768094
303.5498,0.002904027970139456
304.0319,0.002678311418746915
304.514,0.0024263239487999164
304.9962,0.002367608106413154
305.4783,0.0025079776293767332
305.9604,0.002643611792602349
306.4425,0.0026152956408536754
306.9246,0.0024810816976436737
307.4067,0.002438124042449626
307.8889,0.002556806723344792
308.371,0.002660298529241941
308.8531,0.002508583732148846
309.3352,0.002193675521223276
309.8173,0.002028057696302349
310.2994,0.0022871099001610935
310.7816,0.0026269439663692477
311.2637,0.0026141401665289196
311.7458,0.00224369791032907
312.2279,0.0018536518660680049
312.71,0.0016067973592774755
313.1921,0.0015110709420966357
313.6743,0.0015381942835897915
314.1564,0.0018461890438555345
314.6385,0.0020731178007923016
315.1206,0.001953829017125023
315.6027,0.0016188248626872815
316.0848,0.0013963284141024206
316.567,0.0014219738345960567
317.0491,0.001575204373501651
317.5312,0.0016341287152420204
318.0133,0.001582780658153061
318.4954,0.0014898006138532186
318.9775,0.0013105837822549522
319.4597,0.001122994974286046
319.9418,0.0009878151456984056
320.4239,0.000921086624664312
320.906,0.0009409745537050944
321.3881,0.0010910228106159878
321.8702,0.0014091889451622185
322.3524,0.0015634610110714115
322.8345,0.0014427520073885182
323.3166,0.0012941050600867496
323.7987,0.001235635052984356
324.2808,0.0012394990793771295
324.7629,0.0012079817352272648
325.2451,0.001072669533794195
325.7272,0.0008729203646878357
326.2093,0.0007948281439999541
326.6914,0.0010160556558211197
327.1735,0.0011385262366008814
327.6556,0.0010590128261329498
328.1378,0.0008971455651658572
328.6199,0.0007622309671512933
329.102,0.0006913547636270776
329.5841,0.0006651599715807986
330.0662,0.0006686259096728483
330.5483,0.0007334599958824261
331.0305,0.0007256756967596273
331.5126,0.0005743201973898409
331.9947,0.0004053501877451348
332.4768,0.00025651403940202337
332.9589,0.00014148712798713303
333.441,7.83198244008654e-05
333.9232,0.000116144419462001
334.4053,0.00022783781411849283
334.8874,0.00020548779864094485
335.3695,8.15965614515724e-05
335.8516,0.0002760040740949691
336.3337,0.0001330774277799573
336.8159,0.00015779507463826485
337.298,0.0003324663293985727
337.7801,0.00029115664339778865
338.2622,0.00011038644312692956
338.7443,0.00014874140235777473
339.2264,0.0004958109779947458
339.7086,0.0007885964377381993
340.1907,0.0010034976912651605
340.6728,0.0011158162930531422
341.1549,0.001108486328568319
341.637,0.0009766778860402787
342.1191,0.0007689737392704936
342.6013,0.0004088731479859849
343.0834,1.5341964297049357e-06
343.5655,0.00018133838525354845
344.0476,6.549696868938208e-05
344.5297,0.00013491469499100732
345.0118,0.0002575936781479324
345.494,0.00030057014677202667
345.9761,0.0002453011381179369
346.4582,4.814729138412023e-05
346.9403,0.00033123516495963545
347.4224,0.00037502609024478396
347.9045,0.00022158739140313517
348.3867,8.241101811262668e-05
348.8688,7.1463298913395e-05
349.3509,0.00016376140486227777
349.833,0.00027522748673511636
350.3151,0.00042764337502676947
350.7972,0.0005666682711124714
351.2794,0.0007082878204332557
351.7615,0.0008204168332741204
352.2436,0.0008274815671858671
352.7257,0.0007201446453024348
353.2078,0.0006252706510602945
353.6899,0.0007215275293872873
354.1721,0.0010812495246362236
354.6542,0.0013793386260767728
355.1363,0.0016782040239478443
355.6184,0.0018715697186583117
356.1005,0.0018330060661209727
356.5826,0.0016399628180852692
357.0648,0.0014819969194417122
357.5469,0.0014887969076626
358.029,0.001632481085466309
358.5111,0.0017665432605421735
358.9932,0.001847836673631246
359.4753,0.0019925439529142816
359.9575,0.0023346322365524774
360.4396,0.002684485908906982
360.9217,0.0028190974555354895
361.4038,0.002678614470132971
361.8859,0.002476535926852828
362.368,0.002489453674014313
362.8502,0.0027331258988101416
363.3322,0.0029387649322147836
363.8144,0.003021611907929336
364.2965,0.003118663993093341
364.7786,0.003372753427454026
365.2607,0.0037297479602284547
365.7428,0.0039845385342759205
366.2249,0.003910101355744987
366.7071,0.0037001628717160855
367.1892,0.003752022479544708
367.6713,0.0041022931506064265
368.1534,0.004451124206363823
368.6355,0.004590546754356253
369.1176,0.004642046579579349
369.5998,0.004865283928192841
370.0819,0.005344105118161939
370.564,0.005861125329240672
371.0461,0.006326748025244242
371.5282,0.006742626654534972
372.0103,0.007102879595812279
372.4925,0.00740159613484252
372.9746,0.007667389171291594
373.4567,0.007938753504421928
373.9388,0.00822079979280798
374.4209,0.0084795087000566
374.903,0.008722158308255318
375.3852,0.008934294278494792
375.8673,0.009082469435398748
376.3494,0.009184580781622135
376.8315,0.009309850102562403
377.3136,0.009512744217732702
377.7957,0.009770793685165263
378.2779,0.009953759141188493
378.76,0.01014485122318021
379.2421,0.010146708322073962
379.7242,0.009644666122699682
380.2063,0.009091464000536903
380.6884,0.00902890449681051
381.1706,0.009568694776831976
381.6527,0.010290315888487278
382.1348,0.010620244295870239
382.6169,0.010466769376326929
383.099,0.01035403426071395
383.5811,0.010204365666579509
384.0633,0.010180499763824794
384.5454,0.010405649972787076
385.0275,0.010809673231855279
385.5096,0.011236805977418598
385.9917,0.011621225448425586
386.4738,0.011954674100708978
386.956,0.012195452063547415
387.4381,0.012312105027479328
387.9202,0.012477401375489925
388.4023,0.012772442507310073
388.8844,0.013140458412892601
389.3665,0.013512741281990804
389.8487,0.013877459988493037
390.3308,0.014293852592934518
390.8129,0.014866202713873884
391.295,0.015508977128110578
391.7771,0.016014389258897806
392.2592,0.016331875588574837
392.7414,0.016598143809597246
393.2235,0.01689534266728612
393.7056,0.01723365953703512
394.1877,0.017693691541068722
394.6698,0.01846202135675412
395.1519,0.019183264260279626
395.6341,0.019603918979414603
396.1162,0.019813897223785355
396.5983,0.02005163982394105
397.0804,0.020423219613823602
397.5625,0.020863570248641154
398.0446,0.021231115818472524
398.5268,0.02149660822794663
399.0089,0.021755321984017428
399.491,0.02203570027757462
399.9731,0.02231139945773111
400.4552,0.022538367975009726
400.9373,0.022717793790843818
401.4195,0.0228973893154541
401.9016,0.0231260403740281
402.3837,0.023395717317040876
402.8658,0.023670053978165653
403.3479,0.024002561958946726
403.83,0.024271555218032554
404.3122,0.02449221541765902
404.7943,0.024627337545262758
405.2764,0.024615176699243086
405.7585,0.02443829166622969
406.2406,0.024218334545818877
406.7227,0.024108246887114482
407.2049,0.0241030586473852
407.687,0.02395933955806182
408.1691,0.02353894667532439
408.6512,0.02310336728152891
409.1333,0.022899416123124048
409.6154,0.022870909897546036
410.0976,0.02278702042506345
410.5797,0.022568159138464616
411.0618,0.02225628289604626
411.5439,0.021883927294615406
412.026,0.021454748346093434
412.5081,0.020997087416104336
412.9903,0.020513359218092216
413.4724,0.020020122479791187
413.9545,0.01957335200441141
414.4366,0.019208439345022102
414.9187,0.018799809704885838
415.4008,0.01830650023425216
415.883,0.01776401885792251
416.3651,0.017202142192885257
416.8472,0.016624943249768986
417.3293,0.016022098886159082
417.8114,0.015364365855506644
418.2935,0.014647021405011371
418.7757,0.014126306391433838
419.2578,0.013991960075378408
419.7399,0.01384452193944534
420.222,0.013653468648031037
420.7041,0.013387011322943726
421.1862,0.01299133773566415
421.6684,0.012449937646679952
422.1505,0.011851394188340959
422.6326,0.01131470715451271
423.1147,0.010844201694576998
423.5968,0.010405097207058909
424.0789,0.009992171510473912
424.5611,0.00961625687356521
425.0432,0.009282502745484674
425.5253,0.008988790190940997
426.0074,0.008735473173953092
426.4895,0.008585217872335245
426.9716,0.008425643134493392
427.4538,0.008042319497298384
427.9359,0.00744000850412794
428.418,0.006922964048938321
428.9001,0.006607601503374774
429.3822,0.006450014782625451
429.8643,0.006384327788594956
430.3465,0.006431487433087508
430.8286,0.006464978247863372
431.3107,0.006537007501301255
431.7928,0.006528560853069091
432.2749,0.0062718399629130015
432.757,0.005772939800309351
433.2392,0.005206175522517777
433.7213,0.004688394531239487
434.2034,0.0042199716404287555
434.6855,0.003826554210108091
435.1676,0.003429519073561238
435.6497,0.003208935485325166
436.1319,0.0033820534683893246
436.614,0.003647166699969197
437.0961,0.003660898564374184
437.5782,0.0033525057158077178
438.0603,0.002948500397381569
438.5424,0.002731421052932743
439.0246,0.002721174037026295
439.5067,0.002666757645263792
439.9888,0.0025377901276491988
440.4709,0.0023871924991856626
440.953,0.0021781626844327123
441.4352,0.001979380370468427
441.9173,0.0019138829653850492
442.3994,0.002081981932613897
442.8815,0.0022799123085217
443.3636,0.002242390667870177
443.8457,0.002002714842312552
444.3279,0.0018480640833913426
444.81,0.0019053597057624905
445.2921,0.0019865585668191136
445.7742,0.0017990643108826568
446.2563,0.0013598483004544967
446.7384,0.001058766990848581
447.2206,0.001038045549275589
447.7027,0.0011064027896789041
448.1848,0.0011827528285586247
448.6669,0.001241279566880488
449.149,0.0012204446628685567
449.6311,0.0010831245641720316
450.1133,0.000857616512133097
450.5954,0.0006212553414156018
451.0775,0.0003118020069508248
451.5596,0.00011349274407811846
452.0417,0.00010826508342453483
452.5238,0.0001403506610453107
453.006,9.635138187122068e-05
453.4881,1.4376001338255596e-05
453.9702,0.00011019704813269976
454.4523,0.00013002800351290348
454.9344,8.498695489410601e-05
455.4165,1.36373123725376e-06
455.8987,0.00018774033366193428
456.3808,0.00027450772757117703
456.8629,6.157625956536068e-05
457.345,0.00021565893048032387
457.8271,0.00033100785217598226
458.3092,0.00024329343480736877
458.7914,0.00011739454279564995
459.2735,6.155730067064899e-05
459.7556,4.704872768525472e-05
460.2377,6.439866197809194e-07
460.7198,9.669235104670045e-05
461.2019,0.00019467264624002968
461.6841,0.0002831068227725826
462.1662,0.000336140815332451
462.6483,0.0002706438466430689
463.1304,0.00013553970816961003
463.6125,0.00037174935319407695
464.0946,0.0002017753949176432
464.5768,0.00015372279133299348
465.0589,0.00048626510177507827
465.541,0.0007336117640165631
466.0231,0.0008816899444769813
466.5052,0.0009003845783800277
466.9873,0.0007718151490661584
467.4695,0.0006882675185470441
467.9516,0.0007013176385539586
468.4337,0.0007098598085830075
468.9158,0.0006466549266248688
469.3979,0.0005757787231006531
469.88,0.0006011404874969404
470.3622,0.0007630644796835029
470.8443,0.0009630216632612511
471.3264,0.0011072552126176036
471.8085,0.0011955755388054427
472.2906,0.0011833778417372274
472.7727,0.0010031000878466545
473.2549,0.0008277278873524537
473.737,0.0008497749969086104
474.2191,0.0009963005845079844
474.7012,0.001065718262321388
475.1833,0.0009237573559193498
475.6654,0.0007902256419896385
476.1476,0.0008409865067129751
476.6297,0.0010101270009454212
477.1118,0.001168149630808448
477.5939,0.001278422029637777
478.076,0.0012903549810151336
478.5581,0.001100833917408732
479.0403,0.0006031857206911578
479.5224,0.0003789278889623154
480.0045,0.0006928889309638496
480.4866,0.0009544605828257126
480.9687,0.0008444146239920451
481.4508,0.0005365144157587517
481.933,0.00036029022871984735
482.4151,0.00046325191288839544
482.8972,0.0006948968282273047
483.3793,0.0008242052180409342
483.8614,0.0008459298809223271
484.3435,0.000786228757869218
484.8257,0.0005207935644967992
485.3078,0.0003281667817978699
485.7899,0.000450258621077394
486.272,0.0007857933336377323
486.7541,0.0010233667098994528
487.2362,0.0009563167119550308
487.7183,0.0008439602893540693
488.2004,0.0010406217284981772
488.6826,0.0014439642129327438
489.1647,0.0015506761216375735
489.6468,0.001132218888713167
490.1289,0.0005792635715991928
490.611,0.00045885766779057773
491.0931,0.0009369970648733814
491.5753,0.001222414739319032
492.0574,0.0012212403545877864
492.5395,0.0011225401547658525
493.0216,0.0009662791019996942
493.5037,0.0007958885814100427
493.9858,0.0006932681088580833
494.468,0.0006997834712171868
494.9501,0.0007376648944742357
495.4322,0.0006493634786928864
495.9143,0.000397016274628584
496.3964,0.00017167861020094555
496.8785,8.100941757417132e-05
497.3607,0.00022531870553292677
497.8428,0.00015514335076616053
498.3249,7.578180540880945e-05
498.807,0.0003409517682081517
499.2891,0.0006504995577289347
499.7712,0.0008899387607643274
500.2534,0.0009001668662642849
500.7355,0.0007089603520691921
501.2176,0.0004561870335119835
501.6997,0.000148466765069675
