wavelength,intensity
127.452,0.0
128.84,0.0004731238239112378
130.228,0.0010063633451717097
131.615,9.85862525007767e-05
133.003,0.00011518377081231312
134.39,0.00010047729314976859
135.777,4.552559141893529e-05
137.164,0.00027762416256071567
138.55,0.0004907880831016927
139.937,0.0006953307978121375
141.323,0.000529074383010513
142.709,0.0015654470886350706
144.094,0.0017081333788347736
145.48,0.0028758606772316133
146.865,0.003350710681837828
148.25,0.004450244145138715
149.635,0.005218079380962072
151.019,0.0055659193374665095
152.403,0.0068554248048362494
153.788,0.007834935372792274
155.171,0.008945344744235952
156.555,0.010143120193663056
157.939,0.011462271359822376
159.322,0.01307338950454169
160.705,0.014286550266736104
162.088,0.016032189285109216
163.47,0.01798593005367062
164.853,0.020415282091920013
166.235,0.022431126574923178
167.617,0.025021057057205046
168.998,0.027762944777688845
170.38,0.029502474280119064
171.761,0.031921983209349344
173.142,0.034022468732272514
174.523,0.03523737507045062
175.904,0.035578518803528754
177.284,0.036663253661545735
178.664,0.03762779106661948
180.044,0.03636294670884147
181.424,0.036312591690534336
182.803,0.03549950239733395
184.183,0.03353257768127355
185.562,0.032402312383015455
186.94,0.029926014048449297
188.319,0.027485179999285
189.698,0.026444380319012934
191.076,0.024695909588488506
192.454,0.02266487859442728
193.831,0.02145171783223287
195.209,0.021682041734457903
196.586,0.020398141505524662
197.963,0.02025239075970916
199.34,0.018854397744953406
200.717,0.019414140928232824
202.093,0.018215298737926804
203.47,0.01712640359048204
204.846,0.016543424851330906
206.221,0.01514484512909175
207.597,0.014395071755877353
208.972,0.012926795063667403
210.347,0.011123110795014594
211.722,0.00993929995345697
213.097,0.00939951452225768
214.472,0.007903958356480478
215.846,0.006034587093797174
217.22,0.005386740811563441
218.594,0.0036330575971988467
219.967,0.002945843727710844
221.341,0.0022341481550516612
222.714,0.0020798537845604544
224.087,0.0017362807915716912
225.46,0.001031102035918265
226.832,0.0011189336008306727
228.204,0.00029712612535621655
229.577,0.0009824441053730508
230.948,0.0003426614144195056
232.32,0.0011156073088173177
233.692,0.001555953094812696
235.063,0.001536853584257878
236.434,0.0017467736427625076
237.805,0.0023468250847985157
239.175,0.0030301405012562893
240.545,0.0036486514093197644
241.916,0.004760757868525358
243.286,0.005604598391971658
244.655,0.006537725126983436
246.025,0.007769888423289131
247.394,0.008503059429369813
248.763,0.009080631731793702
250.132,0.010129674409766505
251.501,0.010570063835161476
252.869,0.011129491844999397
254.237,0.0115355516093819
255.605,0.012285291040841058
256.973,0.011972566254541748
258.34,0.012419874949183157
259.708,0.012852632328471683
261.075,0.013721769157214883
262.442,0.014542412915366882
263.808,0.014635694556406127
265.175,0.015979933528508742
266.541,0.01641251150137672
267.907,0.017431704830028517
269.273,0.018479874720009476
270.639,0.01950365018561844
272.004,0.020924854512135025
273.369,0.022111133404180694
274.734,0.02354364518401381
276.099,0.024944886909628084
277.463,0.026341100406644915
278.828,0.028066849556448375
280.192,0.028711185291426033
281.556,0.030179704424744824
282.919,0.030358359277852787
284.283,0.03147282226463636
285.646,0.032209115912198966
287.009,0.03134533218313906
288.372,0.030442830608996604
289.734,0.028745102802553463
291.097,0.027653506861156165
292.459,0.02575544511765213
293.821,0.022959808203337366
295.183,0.021530477250852293
296.544,0.01873605739090393
297.905,0.016684724378388013
299.266,0.01431466858653996
300.627,0.012648841181198658
301.988,0.010411895255750925
303.348,0.008781832762786455
304.709,0.008059237037873597
306.069,0.007031810409165423
307.428,0.005893360299072719
308.788,0.00526934597783846
310.147,0.004340214672300449
311.507,0.0039060123440032056
312.865,0.0030356875538266655
314.224,0.0030044756854739458
315.583,0.0026098009555628097
316.941,0.002220164151893475
318.299,0.0019276541052496692
319.657,0.0012958477267771282
321.015,0.0011102445114896638
322.372,0.0008026206861204537
323.729,0.001127099017376576
325.086,0.00044218348960042446
326.443,0.0006591440379059159
327.8,0.0006627370151390006
329.156,0.00036565937800455306
330.512,0.00039340433850078776
331.868,0.0005326091743774747
333.224,0.0004487003066061811
334.579,0.0008932257773180493
335.935,0.0005860965318108835
337.29,0.0005407018585907245
338.645,9.15069721224994e-05
339.999,0.000274976705652127
341.354,0.0004787387599920906
342.708,0.00043525937153180805
344.062,0.00010067124603684466
345.416,0.00031678325046137826
346.769,0.0003586237370258679
348.123,0.000551092884515826
349.476,0.00031242900814652005
350.829,3.5318820736556045e-05
352.182,0.0001900883758010992
353.534,4.8250629482354365e-05
354.887,1.6321135447453e-05
356.239,0.0003026343873491775
357.591,6.129880996039833e-05
358.942,0.0006155191847803264
360.294,0.0008744705331377914
361.645,0.001051544670216085
362.996,0.0006134390400664353
364.347,0.0006752469763554083
365.698,0.0007424080123276815
367.048,0.00016035054939015766
368.398,0.0005338747169656462
369.748,0.00039872834525102644
371.098,0.0005500940271473842
372.448,2.5398130562614027e-05
373.797,0.0002576615616584091
375.146,3.197313343449349e-05
376.495,0.0003243086224799306
377.844,0.0004766780105669072
379.192,0.0005609165982462301
380.54,0.001120097318153129
381.889,0.0014608434478127583
383.236,0.0016946924437604002
384.584,0.002379258856339815
385.932,0.002898742269084415
387.279,0.003519832750546002
388.626,0.004038870071650327
389.973,0.005081337746751251
391.319,0.005216823536018254
392.666,0.0057884414848089075
394.012,0.0066022290084027675
395.358,0.008196429612546869
396.704,0.007714980360957889
398.049,0.008789479355359429
399.394,0.01018363695177325
400.74,0.010253406654076697
402.084,0.011927409173608256
403.429,0.012185080432911019
404.774,0.01318904845992734
406.118,0.013751230600761742
407.462,0.013808194563695989
408.806,0.014664191084339782
410.15,0.014025858191217131
411.493,0.013992983176857732
412.836,0.012999314048145154
414.179,0.011903339620322114
415.522,0.011306469005634154
416.865,0.010592989066413872
418.207,0.009956920573247834
419.549,0.009494313844638296
420.891,0.00903126587321066
422.233,0.008678620733928912
423.575,0.008482607097427639
424.916,0.008237853100404145
426.257,0.008050829180218847
427.598,0.007782122001641455
428.939,0.007724197971916181
430.279,0.007493752849136724
431.619,0.007272893847801003
432.959,0.007119898961653206
434.299,0.007284351614605023
435.639,0.0077239070425855665
436.978,0.008013793876431669
438.318,0.008201419050566901
439.657,0.008203276149460655
440.996,0.008579195635191533
442.334,0.008025755920742086
443.673,0.007947840197181442
445.011,0.008618989918797369
446.349,0.007908370784661459
447.687,0.008089939779897741
449.024,0.007439455738399772
450.361,0.008305018985198594
451.699,0.007950594328177924
453.036,0.007475676440061232
454.372,0.008309319890469508
455.709,0.008372194567637398
457.045,0.00888813834019286
458.381,0.009417329094935619
459.717,0.01024650193129679
461.053,0.011342369685031937
462.388,0.011302783900779706
463.724,0.01329518917737973
465.059,0.015472712787049526
466.394,0.017530887487657052
467.728,0.020522067702721927
469.063,0.02291901991118526
470.397,0.02651330147743542
471.731,0.030685994192346074
473.065,0.034878891949267875
474.398,0.040636839191406246
475.732,0.044584648382574345
477.065,0.048945257200950845
478.398,0.052796143285624854
479.731,0.05511248867421936
481.063,0.05381350860831595
482.396,0.05484812604031247
483.728,0.05116940708467374
485.06,0.047114361342241264
486.391,0.04424382467175989
487.723,0.040098304756328605
489.054,0.037674402794206044
490.385,0.03592040440639995
491.716,0.03351930160615319
493.047,0.03541540927431994
494.377,0.0370323944938733
495.708,0.04077876906534635
497.038,0.04522234607999182
498.368,0.05165855626587963
499.697,0.0603664299440018
501.027,0.0687317197888593
502.356,0.07857809206529592
503.685,0.08614356869207339
505.014,0.09359218385556532
506.342,0.10127898771085324
507.671,0.10366800724623516
508.999,0.10671025525646717
510.327,0.10544406777494617
511.655,0.10241759783207778
512.982,0.09776729613274225
514.31,0.08789021626545931
515.637,0.0794718997012752
516.964,0.07017561660316378
518.291,0.06258978462088768
519.617,0.05264452061615312
520.944,0.04686207227555486
522.27,0.043957787802722255
523.596,0.0351508672339925
524.921,0.03169689118625319
526.247,0.027186584680809183
527.572,0.024293185813763715
528.897,0.02124411066190662
530.222,0.018920647202356422
531.547,0.016611385942962367
532.871,0.0147551065001567
534.196,0.012880163940792135
535.52,0.011969482403637238
536.844,0.010838892234293292
538.167,0.010233250100287314
539.491,0.008697123839355971
540.814,0.008681355469636685
542.137,0.008172127315796234
543.46,0.007173982724214374
544.783,0.008271261485203001
546.105,0.007428870759587595
547.427,0.00765296392531531
548.749,0.007411478034439046
550.071,0.006849795322288866
551.393,0.007713535411949172
552.714,0.007112829378919283
554.035,0.006798106877883087
555.356,0.007908889608634388
556.677,0.00729326374976617
557.998,0.008039958120898232
559.318,0.00983858991684271
560.638,0.009489057721398533
561.958,0.010390313148241534
563.278,0.01108791319483246
564.597,0.012008369957495994
565.917,0.011895794853014853
567.236,0.011579404357149803
568.555,0.011820385970519669
569.874,0.010136200924416616
571.192,0.009460347845289095
572.511,0.008609757761372547
573.829,0.007211008330357199
575.147,0.006466617149759164
576.464,0.0046795013064848305
577.782,0.004608616375080697
579.099,0.0037374381922010216
580.416,0.004480685050765308
581.733,0.0033044189765149426
583.05,0.0027031844218677703
584.366,0.0018116557323116366
585.683,0.00162779324418568
586.999,0.0015309525676685883
588.315,0.0010023048810096425
589.63,0.0009921950867708015
590.946,0.0009527014301399324
592.261,0.00048623503907758146
593.576,0.0006352587398624955
594.891,0.00010030273555140009
596.206,0.00011290967321134598
597.52,0.000823393040326303
598.834,0.00023137124781524501
600.148,0.00039102841563410566
601.462,0.00032942412987656245
602.776,7.675685506036273e-05
604.089,0.00011787971594267078
605.402,0.00010851179149689563
606.715,0.00028790366557574843
608.028,7.90600455943913e-05
609.341,0.00013013753840587967
610.653,9.309738579652334e-06
611.965,0.00037045486313750937
613.277,0.0002998754075305201
614.589,0.0005692565723905019
615.901,0.00024293568870715687
617.212,0.00015957473784185326
618.523,0.00024155862320891666
619.834,0.000464677175679074
621.145,0.00010192224215848545
622.456,0.00010763415468287631
623.766,6.55075876099495e-05
625.076,0.00045138655409218497
626.386,0.00019214912522628265
627.696,0.000931444193716393
629.006,0.0005358239434807609
630.315,0.0004017394638228827
631.624,0.0005000881240369912
632.933,0.0007581472891139062
634.242,0.0005310333071699814
635.551,0.0005993920022199494
636.859,0.0010844633239750743
638.167,0.0005558495790713672
639.475,0.001331273221601576
640.783,0.0010008987225783408
642.09,0.0007817755995819509
643.398,0.0008290467669845712
644.705,0.0008905928668759914
646.012,0.0007288313102323552
647.318,0.0003194985908804435
648.625,0.0006117371034823426
649.931,0.00043095361743871884
651.237,0.0008499257952783121
652.543,0.0010213413568761608
653.849,0.0008627703252249263
655.155,0.0007718209676527706
656.46,0.0006951562402137691
657.765,0.00042433982398942414
659.07,0.0005585115824464866
660.375,0.0004202668133608263
661.679,0.0006724734500702202
662.984,0.0005822417181802461
664.288,0.0004667524715707882
665.592,0.0012148917917115683
666.895,0.0006180405723123155
668.199,0.0011872195635479871
669.502,0.000893439125493833
670.805,0.0016336748654862624
672.108,0.0009622099704288378
673.411,0.0012210207029431728
674.713,0.0014920941067428934
676.016,0.0019192220034840364
677.318,0.0018717423367278093
678.62,0.001835143426936551
679.921,0.0016804902436042537
681.223,0.0021197644398985365
682.524,0.0016706810763403802
683.825,0.0016101047408843404
685.126,0.001992070707869816
686.427,0.002176364741169517
687.727,0.001954855997662091
689.028,0.0019551275317039973
690.328,0.0019369541461849678
691.628,0.002431427334141106
692.927,0.0021862030013664515
694.227,0.0027161744164796915
695.526,0.0018682220918273783
696.825,0.002871695538981654
698.124,0.001989942074934156
699.423,0.0026297393123542318
700.721,0.003013397518279446
702.02,0.0022757607469738365
703.318,0.002241654131781506
704.616,0.0025853531941468686
705.913,0.0024524663735666853
707.211,0.0030244091934431908
708.508,0.003132533079165934
709.805,0.002655176233494261
711.102,0.003417600183768195
712.399,0.0038906270312358947
713.695,0.002976051889872945
714.992,0.0035541915044915314
716.288,0.003120294651991433
717.584,0.004203206352869898
718.879,0.003462485730659779
720.175,0.003991385556071924
721.47,0.0037235123749089585
722.765,0.003832523595090075
724.06,0.004033686680743219
725.355,0.003910085354631804
726.649,0.003710585414985337
727.944,0.004332374126840398
729.238,0.003587905365087533
730.532,0.005297585518196738
731.825,0.004503246620354433
733.119,0.0038056465737635057
734.412,0.004427842586681426
735.705,0.005164999324591524
736.998,0.004786679671883078
738.291,0.0054603168392757554
739.584,0.006717349744526781
740.876,0.006424325722732223
742.168,0.006789742659627932
743.46,0.00674236481813742
744.752,0.006629493935503489
746.043,0.00705940990499635
747.334,0.007120427483270489
748.626,0.007634562645153965
749.916,0.0064573268064682205
751.207,0.006418526531408649
752.498,0.006612498813773446
753.788,0.007200340921568015
755.078,0.007030661238309497
756.368,0.006601972020827391
757.658,0.006832000144899634
758.947,0.007195050856573014
760.237,0.007203584783604362
761.526,0.006629852748344579
762.815,0.007896336008018388
764.104,0.007738487450871512
765.392,0.007607433485074197
766.68,0.008449853303622665
767.969,0.008186964711657556
769.257,0.007676189783542672
770.544,0.007992037211323907
771.832,0.007853021479512121
773.119,0.008237920983914621
774.406,0.007652624507762926
775.693,0.007499290204062746
776.98,0.007277301427159807
778.267,0.006467310531330462
779.553,0.007162995293161513
780.839,0.00672157791746504
782.125,0.006229058804846192
783.411,0.005658842165664664
784.697,0.005494326478024547
785.982,0.0049789354711972525
787.267,0.005453635162315984
788.552,0.0054542315674437425
789.837,0.006093766968466266
791.122,0.005972168205913911
792.406,0.0050378389630022615
793.69,0.005657629960120439
794.974,0.005014976766438167
796.258,0.004593832316263322
797.542,0.00539353401143328
798.825,0.0043652782341328565
800.108,0.005092412456603296
801.391,0.003825871011063365
802.674,0.00350228971190997
803.957,0.003015637674125175
805.239,0.0034685661536696145
806.522,0.0034869140967870127
807.804,0.0023809220023464925
809.085,0.001855998211119408
810.367,0.0023536716217123018
811.649,0.0014350331673651075
812.93,0.0018435949239908917
814.211,0.002466057622128542
815.492,0.0018124848809038868
816.772,0.0007865807823592611
818.053,0.000986905021775801
819.333,0.0008181078241534796
820.613,0.0012438586553963824
821.893,5.233818657748297e-05
823.173,0.0005649217253643513
824.452,0.00023244283751634043
825.732,0.0003490036738268938
827.011,0.0004625921821430061
828.29,0.0010329203442346034
829.568,0.0006576166589201917
830.847,0.0005718603898994984
832.125,0.00029571026928056104
833.403,3.879057741521806e-05
834.681,0.0001447518884470631
835.959,0.00014169713047561467
837.236,0.00024496249637710206
838.514,0.0001009573265452819
839.791,0.00012148239082010914
841.068,0.0003959257260327769
842.345,0.0005172287104323408
843.621,0.0003059558305403555
844.898,2.1315422289662323e-05
846.174,0.00014471794669182478
847.45,0.00023459086574070811
848.726,0.00039448562584623695
850.001,3.054757971448422e-07
851.277,0.00022396224752893837
852.552,0.00047805507606514736
853.827,0.00012380497664284535
855.102,0.00033153336752351494
856.376,0.00017281687120697335
857.651,0.0005012566901816247
858.925,0.0002545001295990688
860.199,0.00036688613001530936
861.473,0.0005555780450294607
862.746,0.0005055963860299522
864.02,0.0007211022876823731
865.293,5.466562122239605e-05
866.566,0.00013030239835989436
867.839,0.00039507718215181904
869.112,0.00038886099212103034
870.384,6.762652290125578e-05
871.656,0.0009248594932001597
872.928,0.00014866973676600013
874.2,3.700136203194113e-05
875.472,0.0002746130439888593
876.744,0.0008936476248474399
878.015,0.0002171496523703907
879.286,0.00017494550414263343
880.557,0.0002137457792022053
881.828,0.00048346151279239337
883.098,0.00025443709491076907
884.369,0.0008689913640778919
885.639,0.0006833881487904272
886.909,0.00035707696275143604
888.178,0.0011119464480737564
889.448,0.0006205668086664817
890.717,0.0013170661726232525
891.987,0.00015153054185037244
893.256,0.001730321589116278
894.524,0.0009427952864325211
895.793,0.00094071514171863
897.061,0.0013652440697729535
898.33,0.0005629676500270597
899.598,0.0017728845501851262
900.865,0.0020469157355127573
902.133,0.0014044758900062697
903.401,0.0018820703279646112
904.668,0.001472310912261132
905.935,0.0015473997724926407
907.202,0.0016722957341252888
908.468,0.0021097079827036413
909.735,0.0019375505513127267
911.001,0.0023229688796881564
912.267,0.0027229676163495315
913.533,0.002807778365045729
914.799,0.002887493001634002
916.064,0.002691329051645244
917.33,0.002727661276216773
918.595,0.002967692520439965
919.86,0.002882867225277237
921.124,0.0029193788562693113
922.389,0.003237223998787431
923.653,0.0032643143682897836
924.918,0.0033399753895381667
926.182,0.003115072470506909
927.445,0.003307265235132784
928.709,0.00306321431732494
929.972,0.003051906864008404
931.236,0.003578881707016318
932.499,0.0030924915056290757
933.761,0.004036503846427999
935.024,0.0030118895345824293
936.286,0.004033463634923081
937.549,0.004046477873645887
938.811,0.004350416594160651
940.073,0.003946422428025509
941.334,0.003964266093636509
942.596,0.004753072485374969
943.857,0.004504230931256344
945.118,0.004342653629855431
946.379,0.004632016790906427
947.64,0.004446190529798825
948.9,0.004735529446738936
950.161,0.00483577884524639
951.421,0.004785709907447698
952.681,0.00561813630348957
953.94,0.00579119076698321
955.2,0.0055666563584373975
956.459,0.006093699084955789
957.719,0.0069166993706857634
958.978,0.006527503809834526
960.236,0.0065601654760181404
961.495,0.008614795687614349
962.753,0.006455818822771204
964.012,0.008471687549885256
965.27,0.008189238809258523
966.527,0.007494669276528158
967.785,0.008618432304247026
969.043,0.008644363805249099
970.3,0.008937892104550054
971.557,0.008644169852362023
972.814,0.010204530526533523
974.071,0.010186623826234222
975.327,0.009605953126439293
976.583,0.010648314127452325
977.84,0.010289908587424419
979.095,0.01092121068839056
980.351,0.010556113773758528
981.607,0.011353279534929967
982.862,0.01090399736966256
984.117,0.00998328361942365
985.372,0.010809973858830247
986.627,0.010082708718161032
987.882,0.009943237197064615
989.136,0.010292968194218044
990.39,0.009390316306588096
991.644,0.009723018240256244
992.898,0.009123223785795612
994.152,0.010115161884991038
995.405,0.008487654721313796
996.659,0.009523450417099302
997.912,0.008806547209422125
999.165,0.008584684501895786
1000.417,0.00884354372263189
1001.67,0.008574545614723882
1002.922,0.008765041291587842
1004.174,0.008515099054835062
1005.426,0.009393899586176827
1006.678,0.008596045292256268
1007.93,0.008224247305375756
1009.181,0.009220030520557466
1010.432,0.008345370883354776
1011.683,0.00886522280658482
1012.934,0.009305631627268498
1014.185,0.008566355954067096
1015.435,0.009404261519168866
1016.685,0.008824594525564555
1017.935,0.009525671177656321
1019.185,0.009572690206305743
1020.435,0.008541728786230609
1021.684,0.009596463981439096
1022.934,0.009177438466555556
1024.183,0.009990619887377303
1025.432,0.01088762289717116
