wavelength,intensity
155.7175,0.0
156.1996,3.363410232001353e-05
156.6817,3.6202901635248454e-05
157.1639,3.308745095661175e-05
157.646,4.430505074938763e-05
158.1281,2.0735934702478557e-05
158.6102,1.183999945622524e-06
159.0923,1.0522899341846749e-05
159.5744,8.880011714224371e-06
160.0566,6.608653697787163e-07
160.5387,1.9380567683479957e-05
161.0208,4.554336235221364e-05
161.5029,7.98535068554196e-05
161.985,0.0001251229834869709
162.4671,0.00018371343533223874
162.9493,0.00025162696001814535
163.4314,0.00032592405607638735
163.9135,0.000403694460436388
164.3956,0.0004899269322830749
164.8777,0.0005863889157881507
165.3598,0.0006930988849641094
165.842,0.0008110018752532293
166.3241,0.0009415922936504317
166.8062,0.0010823802699678772
167.2883,0.0012311920772236605
167.7704,0.001389267074366198
168.2525,0.0015523911500415436
168.7346,0.0017186005312680522
169.2168,0.001888209421722787
169.6989,0.0020647283686618255
170.181,0.0022561254415684705
170.6631,0.0024540092687833754
171.1452,0.002648977499223309
171.6273,0.002832648458873278
172.1095,0.0030129858532766266
172.5916,0.003199168987696449
173.0737,0.0033913239315093435
173.5558,0.0035833295315991906
174.0379,0.003776878996670162
174.5201,0.003965250889420639
175.0022,0.0041410134201000795
175.4843,0.0042979591265576165
175.9664,0.004444378040069099
176.4485,0.00458752011955343
176.9306,0.004728053047824371
177.4128,0.004857666428552927
177.8949,0.004971458587400469
178.377,0.005069050831354982
178.8591,0.005151742644759872
179.3412,0.005219446748815958
179.8233,0.005272521956364331
180.3055,0.0053156231366948145
180.7876,0.005349836425975037
181.2697,0.005362889455275258
181.7518,0.00533563422581889
182.2339,0.00527609068948653
182.716,0.005208018074945
183.1982,0.005148057539905426
183.6803,0.005086739334656321
184.1624,0.005001312785543657
184.6445,0.0048908469187094695
185.1266,0.004766379592957259
185.6087,0.004637538144719265
186.0909,0.004503741200216477
186.573,0.004369357063348067
187.0551,0.004234288272788278
187.5372,0.004099873588340153
188.0193,0.003967218541460025
188.5014,0.0038411923193779405
188.9836,0.003740004188897038
189.4657,0.003658804842958198
189.9478,0.0035917335101961975
190.4299,0.003534966409442332
190.912,0.0034804297668898413
191.3941,0.0034255275231452127
191.8763,0.003370363443003031
192.3584,0.00330887213480221
192.8405,0.0032461225572464818
193.3226,0.0031916062797471344
193.8047,0.0031455773805862367
194.2868,0.0030944179426799587
194.769,0.0030405451038834864
195.2511,0.0029902148145694585
195.7332,0.002938991372210446
196.2153,0.0028811793502774574
196.6974,0.002822654551484465
197.1795,0.0027670424401731375
197.6617,0.0027114870600812796
198.1438,0.0026510164289486964
198.6259,0.0026009130645125475
199.108,0.002561866954168607
199.5901,0.0025132643001962093
200.0722,0.0024526079591742508
200.5544,0.0023858629521447557
201.0365,0.002324668391861161
201.5186,0.0022690941013628133
202.0007,0.0022155117070147374
202.4828,0.00216404776307575
202.9649,0.002115259399213977
203.4471,0.002059302051763654
203.9292,0.0019935457195760296
204.4113,0.0019223475542592674
204.8934,0.0018529483019701363
205.3755,0.0017860229187556607
205.8576,0.0017206060041204192
206.3398,0.0016568362343786713
206.8219,0.0015950632096093723
207.304,0.0015321730162105142
207.7861,0.001468749937254415
208.2682,0.0014009537055769679
208.7503,0.001331879324373689
209.2325,0.0012614298172010407
209.7146,0.0011942983590440468
210.1967,0.0011336851725394623
210.6788,0.0010816010642440488
211.1609,0.00102543715696899
211.643,0.0009627016409975756
212.1252,0.0008972764833646335
212.6073,0.0008395410728220407
213.0894,0.0007922732995949444
213.5715,0.0007459733512743578
214.0536,0.0006967645945298476
214.5357,0.0006440477149403485
215.0179,0.0005898417620603227
215.5,0.0005324661341232561
215.9821,0.00047460198735186645
216.4642,0.00042244805601710574
216.9463,0.0003799722767709984
217.4284,0.0003368246932122813
217.9105,0.00028576567441328693
218.3927,0.00022172490400007214
218.8748,0.0001675382009440887
219.3569,0.00012530767512368912
219.839,9.173040584841106e-05
220.3211,5.958921223726614e-05
220.8032,3.151813935670169e-05
221.2854,5.92172105998542e-07
221.7675,4.3741835809429554e-05
222.2496,3.0434073636145115e-05
222.7317,1.7151360478226556e-05
223.2138,4.611999398313522e-05
223.6959,6.16205293118358e-05
224.1781,7.463181025311356e-05
224.6602,8.203077347751402e-05
225.1423,8.590090938623033e-05
225.6244,6.373999797358155e-05
226.1065,3.0745891692697346e-05
226.5886,2.2184525176650285e-06
227.0708,2.2337015785291683e-05
227.5529,4.25343093786047e-05
228.035,5.7426831499254814e-05
228.5171,5.8062657551312e-05
228.9992,5.1262475377537205e-05
229.4813,4.5227238541568326e-05
229.9635,4.008309884998184e-05
230.4456,3.543165282861256e-05
230.9277,3.1319095206339844e-05
231.4098,2.7863766337213177e-05
231.8919,2.493152840453072e-05
232.374,2.1531456712932024e-05
232.8562,2.046140893728888e-05
233.3383,2.2925880994565577e-05
233.8204,2.974410563566063e-05
234.3025,3.756001423023074e-05
234.7846,4.635970035627256e-05
235.2667,5.3294422798989865e-05
235.7489,4.171822836212116e-05
236.231,3.079500541252719e-05
236.7131,1.6568061716811747e-05
237.1952,3.2318127132380078e-06
237.6773,2.8144934988785207e-05
238.1594,1.1408987652920398e-06
238.6416,2.645318093126401e-05
239.1237,5.1261942007097736e-05
239.6058,2.103404998755886e-05
240.0879,1.81232050583209e-05
240.57,5.806774881459775e-05
241.0521,9.675911932807638e-05
241.5343,0.0001337270244869969
242.0164,0.0001698025039242585
242.4985,0.00020251188251809284
242.9806,0.00023590004772847174
243.4627,0.0002764739249639109
243.9448,0.00032834895204705616
244.427,0.0003800453970094261
244.9091,0.0004275192451790407
245.3912,0.0004692426811761799
245.8733,0.0005154545263978121
246.3554,0.000569373913887183
246.8375,0.0006251188829261575
247.3197,0.0006742408457537012
247.8018,0.0007110681350694915
248.2839,0.0007514510656876042
248.766,0.0008015490964193583
249.2481,0.0008638981612632737
249.7302,0.0009170213721511972
250.2124,0.0009559554747028515
250.6945,0.0009909179070094053
251.1766,0.001034854054518752
251.6587,0.0010938293088919788
252.1408,0.0011502889943198287
252.6229,0.0011993382248147188
253.1051,0.0012406773431661168
253.5872,0.0012853223884777265
254.0693,0.001335178947865071
254.5514,0.0013869774605342648
255.0335,0.0014376835335670024
255.5156,0.0014867269454752804
255.9978,0.00153480010806596
256.4799,0.00158087264662645
256.962,0.0016251103908752
257.4441,0.0016738769350371767
257.9262,0.0017282424141668226
258.4083,0.0017854396054477791
258.8904,0.001842286226885346
259.3726,0.001898700333384733
259.8547,0.0019559309815387104
260.3368,0.002014668643625269
260.8189,0.002074867255833728
261.301,0.0021306127097549202
261.7831,0.0021804474494424683
262.2653,0.0022280357298154582
262.7474,0.0022745087810877597
263.2295,0.0023179285290352665
263.7116,0.002367675020159195
264.1937,0.0024289335848955255
264.6758,0.002498089426311376
265.158,0.0025558456867893296
265.6401,0.00259656706519539
266.1222,0.002636040356773116
266.6043,0.002686343007800735
267.0864,0.0027525182782244446
267.5685,0.0028127838041789453
268.0507,0.0028636896486853715
268.5328,0.0029078842384167463
269.0149,0.002957017353535297
269.497,0.0030150509666417697
269.9791,0.003069887266404792
270.4612,0.003114007184274644
270.9434,0.003144386994741807
271.4255,0.003177029265636713
271.9076,0.0032124901568630526
272.3897,0.003251328737617822
272.8718,0.003296896998671914
273.3539,0.0033515311025501602
273.8361,0.0034048395384452413
274.3182,0.0034516903129651237
274.8003,0.003491599028774336
275.2824,0.003526106641560696
275.7645,0.003553073366097538
276.2466,0.0035766643406348205
276.7288,0.0036063779229348774
277.2109,0.003643789010440767
277.693,0.003678885270239403
278.1751,0.0037059189085222864
278.6572,0.0037246780317602857
279.1393,0.0037438551234699343
279.6215,0.0037622282804626525
280.1036,0.00377643242014767
280.5857,0.003781041225626815
281.0678,0.0037748866156376735
281.5499,0.0037663900245370877
282.032,0.0037612357265630406
282.5142,0.0037586852460979895
282.9963,0.003741680911605811
283.4784,0.0037087220126227538
283.9605,0.003670883743883079
284.4426,0.003644330623877927
284.9247,0.0036279866989662422
285.4069,0.0036032979510881094
285.889,0.0035623263734577207
286.3711,0.003509127520943837
286.8532,0.003459109010895785
287.3353,0.0034129976817578794
287.8174,0.0033646665618273885
288.2996,0.0033093507135510698
288.7817,0.003246934734961113
289.2638,0.0031769385926620052
289.7459,0.003096741983149348
290.228,0.0030101046831391112
290.7101,0.002924829417278367
291.1923,0.002840672289811616
291.6744,0.002756628139901587
292.1565,0.0026707928350794097
292.6386,0.0025832657761997117
293.1207,0.002495480275097985
293.6028,0.0024081098331746012
294.085,0.0023225795192673513
294.5671,0.0022385130647753085
295.0492,0.0021558498594212608
295.5313,0.00207259752217272
296.0134,0.001990359558523587
296.4955,0.0019077904203197717
296.9777,0.0018266133789629447
297.4598,0.001750370014171116
297.9419,0.0016775310074296902
298.424,0.0016064002407411872
298.9061,0.0015376235772195702
299.3882,0.0014735609386183376
299.8704,0.0014185335952615447
300.3525,0.001369508608877539
300.8346,0.0013202261500359397
301.3167,0.0012694327982040179
301.7988,0.001217061639635732
302.2809,0.0011600021549045994
302.7631,0.0011010317493535494
303.2452,0.0010448101410945854
303.7273,0.0009937268296964848
304.2094,0.0009476072575608789
304.6915,0.0009076970871050141
305.1736,0.0008739526789292982
305.6558,0.0008429211867615592
306.1379,0.0008137676434229344
306.62,0.0007849229700569782
307.1021,0.0007537300121107483
307.5842,0.0007128122564065231
308.0663,0.0006719677179171694
308.5485,0.0006413978336206714
309.0306,0.0006210114456601036
309.5127,0.0006010304192335248
309.9948,0.0005727336627735585
310.4769,0.0005413389938247695
310.959,0.0005137579235181141
311.4412,0.0004942089271474972
311.9233,0.00047638945715915967
312.4054,0.0004556493961090085
312.8875,0.0004324176223185909
313.3696,0.0004110556028478086
313.8517,0.0003973026945545736
314.3339,0.0003848696841461133
314.816,0.0003670918655402753
315.2981,0.00033941183077298927
315.7802,0.00031400099629627176
316.2623,0.00029977324284725276
316.7444,0.0002934495544288022
317.2266,0.00028573381765158466
317.7087,0.00026575250029567523
318.1908,0.0002477836865842891
318.6729,0.00024304987846942295
319.155,0.0002612991480555211
319.6371,0.0002694864327894424
320.1193,0.00024919566360220304
320.6014,0.0002139619396948516
321.0835,0.00018470676504339891
321.5656,0.00016975256105583646
322.0477,0.0001599358296293672
322.5298,0.00015248212320258952
323.012,0.00014779801551503664
323.4941,0.00014121113302882374
323.9762,0.00012904907480360865
324.4583,0.00011549050730322396
324.9404,0.00010508537130558765
325.4225,0.00010037769834225501
325.9047,9.700863971729978e-05
326.3868,9.464542076472116e-05
326.8689,9.33503973377141e-05
327.351,9.173118165995937e-05
327.8331,8.905206194255556e-05
328.3152,8.658740563003615e-05
328.7974,8.523807539464777e-05
329.2795,8.782244912671492e-05
329.7616,8.825830975219666e-05
330.2437,8.475324166517933e-05
330.7258,7.825208635505407e-05
331.2079,7.397513426569567e-05
331.6901,7.248722469249146e-05
332.1722,7.254419835307005e-05
332.6543,7.339788198553546e-05
333.1364,7.384586466645947e-05
333.6185,7.739956643991113e-05
334.1006,8.661087392937235e-05
334.5828,9.806403435232432e-05
335.0649,0.00010350688573411888
335.547,0.00010101808228715848
336.0291,9.574207887647113e-05
336.5112,8.868675167974774e-05
336.9933,7.872499198196737e-05
337.4755,7.306937428305033e-05
337.9576,7.345223728213853e-05
338.4397,7.6318473047349e-05
338.9218,7.698353749713291e-05
339.4039,7.51863215572641e-05
339.886,7.211153795022506e-05
340.3681,6.727672886941405e-05
340.8503,6.1013214334178796e-05
341.3324,5.921468921232221e-05
341.8145,6.372326953707124e-05
342.2966,6.755708776768254e-05
342.7787,6.290197603674753e-05
343.2608,4.932187976589738e-05
343.743,3.788176267460127e-05
344.2251,3.159429980663429e-05
344.7072,2.830706505591429e-05
345.1893,2.0811605421371294e-05
345.6714,8.535391375645397e-06
346.1535,1.7057574559680913e-06
346.6357,3.442896489065094e-06
347.1178,1.7914167485452466e-06
347.5999,4.7240037964244395e-06
348.082,4.145452031920816e-06
348.5641,1.366456275317179e-06
349.0462,2.766165773123554e-06
349.5284,7.903696520082925e-06
350.0105,1.1488905940040102e-05
350.4926,9.914769762064022e-06
350.9747,6.160709807440579e-06
351.4568,8.479261410125578e-06
351.9389,1.7909454430296518e-05
352.4211,2.244887326409064e-05
352.9032,2.2160513809230264e-05
353.3853,1.029741941297644e-05
353.8674,4.002930601675128e-06
354.3495,1.3140075355940625e-05
354.8316,1.6324568413554247e-05
355.3138,7.333397450924389e-06
355.7959,4.358291081375941e-06
356.278,3.499535580913489e-06
356.7601,4.907080775357739e-06
357.2422,5.940427815943909e-06
357.7243,2.2711931564831943e-06
358.2065,9.818389723653734e-06
358.6886,2.0211200015316373e-06
359.1707,3.3325954821849217e-06
359.6528,1.449443866874861e-06
360.1349,1.0553408130983818e-05
360.617,4.919959247059591e-06
361.0992,6.0434022525147815e-06
361.5813,7.65887948837113e-06
362.0634,4.8778714705640794e-06
362.5455,3.2113749277623653e-06
363.0276,1.7707025802055201e-06
363.5097,2.374710564161437e-07
363.9919,1.8548296449747742e-06
364.474,6.9638396198896065e-06
364.9561,1.0661226540909416e-05
365.4382,1.0403017062345016e-05
365.9203,5.667070616898868e-06
366.4024,2.320234143980384e-06
366.8846,2.040185570331217e-06
367.3667,3.2671800221963333e-06
367.8488,4.745101021716141e-06
368.3309,6.842289345559022e-06
368.813,8.566719615730363e-06
369.2951,6.918057040895296e-06
369.7773,6.229461257086876e-06
370.2594,1.8933680836367935e-06
370.7415,1.1685937829198525e-05
371.2236,2.106741473295813e-05
371.7057,2.129719556709935e-05
372.1878,5.518725751218719e-06
372.67,4.918136089921075e-06
373.1521,1.713113119210452e-06
373.6342,1.2635497222567825e-06
374.1163,1.5365820502159717e-06
374.5984,4.056059146267446e-06
375.0805,1.4510148852601775e-06
375.5627,1.7565973564929115e-06
376.0448,1.2893309097713716e-06
376.5269,6.452075532050635e-06
377.009,1.3811482065131927e-06
377.4911,1.3798540558741775e-05
377.9732,2.059703049357684e-05
378.4554,2.1200262762960896e-05
378.9375,2.2634554060532938e-05
379.4196,2.584377126242658e-05
379.9017,3.1365367516374025e-05
380.3838,3.824264596276158e-05
380.8659,4.680902616093955e-05
381.3481,5.524912848316447e-05
381.8302,6.212170357204041e-05
382.3123,6.817977351164033e-05
382.7944,7.671947064137882e-05
383.2765,8.884608397648074e-05
383.7586,0.00010213811172180115
384.2408,0.00011358448379370546
384.7229,0.0001231977101534101
385.205,0.00013165730474078616
385.6871,0.00013691813133805982
386.1692,0.00014168122633887443
386.6513,0.0001527742162505261
387.1335,0.00017088674905123562
387.6156,0.00019009031532996997
388.0977,0.00020334185541011322
388.5798,0.0002135272912749141
389.0619,0.00022504823823189918
389.544,0.00023844878261753864
390.0262,0.00025278185248423993
390.5083,0.00026664468357622526
390.9904,0.0002811653543729509
391.4725,0.00029894302751412355
391.9546,0.0003256115979753078
392.4367,0.0003536484090783702
392.9189,0.0003762036267104447
393.401,0.00039099830444838706
393.8831,0.00040210302850970687
394.3652,0.0004083029264979812
394.8473,0.0004125937462187655
395.3294,0.00041985621509888616
395.8116,0.00043364519862911725
396.2937,0.000449202887024817
396.7758,0.00046448525929731224
397.2579,0.0004791441215260796
397.74,0.0004933846273774239
398.2221,0.0005100413013195185
398.7043,0.0005245121262242656
399.1864,0.0005329767150984839
399.6685,0.0005259653182306832
400.1506,0.0005235564233731982
400.6327,0.000530337501187596
401.1148,0.0005439748135601336
401.597,0.0005537907691750545
402.0791,0.0005588917301051556
402.5612,0.0005610256967452104
403.0433,0.0005600680543652721
403.5254,0.0005531483002366149
404.0075,0.0005518788785907019
404.4897,0.0005604976600101457
404.9718,0.0005717556553404774
405.4539,0.0005726793559651772
405.936,0.0005591656885581506
406.4181,0.0005485976806235922
406.9002,0.0005471769757257598
407.3824,0.0005533214031883303
407.8645,0.0005546136142984749
408.3466,0.0005510540939384109
408.8287,0.0005447045612977573
409.3108,0.0005368261950247265
409.7929,0.0005266441533354494
410.2751,0.0005122528491144036
410.7572,0.0004930272691829862
411.2393,0.0004722971482182977
411.7214,0.000455278800630028
412.2035,0.00044004127996266905
412.6856,0.0004217007070549798
413.1678,0.0003945751351036226
413.6499,0.00036357613004446874
414.132,0.00034024350075277155
414.6141,0.00032569519166963755
415.0962,0.00031242057119593224
415.5783,0.00029260328949426743
416.0605,0.0002679143476632471
416.5426,0.000244197740143361
417.0247,0.00022353598757136688
417.5068,0.0002060850280684739
417.9889,0.00019166652195501556
418.471,0.00017916223386055474
418.9532,0.00016537194114833587
419.4353,0.00014623039130524414
419.9174,0.0001273665335082236
420.3995,0.00011347858551736192
420.8816,0.00010730283466352858
421.3637,0.00010051142885789398
421.8459,8.77274607002694e-05
422.328,7.235155464798173e-05
422.8101,5.9957965163819555e-05
423.2922,5.6744553730742896e-05
423.7743,5.273239582046512e-05
424.2564,4.359031981404571e-05
424.7386,2.8539372126409676e-05
425.2207,1.5250951904788901e-05
425.7028,5.488003613905867e-06
426.1849,1.1188463220314883e-06
426.667,5.206330684827438e-06
427.1491,8.817476454608864e-06
427.6313,1.1570288571457228e-05
428.1134,3.016171044564634e-06
428.5955,1.0606056642180622e-05
429.0776,2.0326888063635086e-05
429.5597,1.638092627371638e-05
430.0418,1.259045651336658e-05
430.524,1.6588834071017596e-05
431.0061,3.1049704343835515e-05
431.4882,3.2629537887869454e-05
431.9703,1.7098052527213693e-05
432.4524,1.5758769051375876e-06
432.9345,6.280029623569789e-06
433.4167,2.8576969893569373e-06
433.8988,9.702459234226177e-06
434.3809,1.0788391751320854e-05
434.863,7.5343908278013415e-06
435.3451,1.6644115492656458e-06
435.8272,6.932239845762735e-06
436.3094,6.129813112529358e-06
436.7915,4.986315378550498e-06
437.2736,1.7266253319708255e-05
437.7557,8.388176285532468e-06
438.2378,6.43256387161078e-06
438.7199,5.221434765908488e-06
439.202,1.2859270366031862e-06
439.6841,3.4999719749094107e-06
440.1663,5.510550637028462e-06
440.6484,9.337973271188437e-06
441.1305,1.3507897308636078e-05
441.6126,1.7757608715004647e-05
442.0947,2.167048214238817e-05
442.5768,2.2452854147097877e-05
443.059,1.6814464313375388e-05
443.5411,8.4990736975404e-06
444.0232,4.2848071327967654e-07
444.5053,6.3283190436295595e-06
444.9874,1.41032647884492e-05
445.4695,2.83222612646167e-06
445.9517,1.0621892895410384e-05
446.4338,1.7935448965986892e-05
446.9159,1.1183245887652536e-05
447.398,4.695701221377861e-06
447.8801,3.9853002842399115e-06
448.3622,9.712244157379167e-06
448.8444,9.961066316209082e-06
449.3265,3.7544430600636397e-08
449.8086,1.1376054452694877e-05
450.2907,1.5462442981678847e-05
450.7728,1.3430650722535848e-05
451.2549,1.3309391377535875e-05
451.7371,1.587742457886685e-05
452.2192,1.6578743672067462e-05
452.7013,1.494034120495872e-05
453.1834,1.4333612934785117e-05
453.6655,1.7439172016180946e-05
454.1476,1.2385428916438444e-05
454.6298,6.51550782376887e-07
455.1119,1.326303663752469e-05
455.594,2.4912642242151687e-05
456.0761,3.8016128385945406e-05
456.5582,5.408099873252695e-05
457.0403,7.322468205737652e-05
457.5225,9.646940220300648e-05
458.0046,0.00012421896908030924
458.4867,0.00015451954979310207
458.9688,0.00018377802164363507
459.4509,0.00021255355080534858
459.933,0.00024184038826561644
460.4152,0.0002716193811768399
460.8973,0.0003030740300559572
461.3794,0.00033751055910920415
461.8615,0.000375549423622337
462.3436,0.00041476262437849384
462.8257,0.00045452946365080943
463.3079,0.0004948009683352969
463.79,0.0005353890041314927
464.2721,0.0005738105861790485
464.7542,0.0006162843289198416
465.2363,0.0006674180680685819
465.7184,0.0007248373354052409
466.2006,0.0007817052916603859
466.6827,0.00083306498592257
