wavelength,intensity
168.0016,0.0
168.4837,2.3089848765299703e-06
168.9658,7.277703879400491e-06
169.4479,1.9886838055792496e-05
169.93,1.4122951006487421e-05
170.4122,1.0773501018415588e-06
170.8943,5.465931775356608e-06
171.3764,1.144409312548117e-06
171.8585,1.9873072249632273e-05
172.3406,4.667525685472317e-05
172.8227,8.226632925886792e-05
173.3049,0.00012386893260735868
173.787,0.00015330472588490098
174.2691,0.00016148444645622622
174.7512,0.00016400447631800588
175.2333,0.00017337744353884503
175.7154,0.00019022070015830685
176.1976,0.00020806485065152485
176.6797,0.00022079931233472325
177.1618,0.00023092748360961494
177.6439,0.0002443020383083862
178.126,0.00026453389430617616
178.6081,0.0002878021797275859
179.0903,0.0003082574209630657
179.5724,0.00032461458315929313
180.0545,0.000341789935609651
180.5366,0.00036670342639568364
181.0187,0.00039431969915134334
181.5008,0.000416032870324177
181.983,0.00042502743546233066
182.4651,0.00042656926393814203
182.9472,0.00043830181349492717
183.4293,0.0004654673882292438
183.9114,0.000493423417954839
184.3935,0.0005167593444456166
184.8757,0.0005346524680428212
185.3578,0.0005478402945995601
185.8399,0.0005560207424942118
186.322,0.0005596743300045077
186.8041,0.0005657261449634993
187.2862,0.0005778903851586941
187.7684,0.0005916377657946474
188.2505,0.0006069430729960393
188.7326,0.000622770113463666
189.2147,0.0006372554848349439
189.6968,0.0006483956537863767
190.1789,0.000655988424433188
190.6611,0.0006669981600680622
191.1432,0.0006850042612219888
191.6253,0.0007029754508562417
192.1074,0.000719867292673916
192.5895,0.0007348918530712653
193.0716,0.0007469368122409082
193.5538,0.0007546323779178698
194.0359,0.0007573215346971798
194.518,0.0007618265753817397
195.0001,0.0007692200594370803
195.4822,0.0007780764331431922
195.9643,0.0007871534282583532
196.4465,0.0007979677563594984
196.9286,0.0008074573862419138
197.4107,0.0008127164187749819
197.8928,0.0008142501012295361
198.3749,0.0008157018385893007
198.857,0.0008152533225379372
199.3392,0.0008136745460371378
199.8213,0.0008100330805822843
200.3034,0.0008001953052675673
200.7855,0.0007857623011758
201.2676,0.0007627720957062357
201.7497,0.0007307368973478778
202.2319,0.0007048616426830566
202.714,0.0006927652859983384
203.1961,0.0006829561187344653
203.6782,0.0006641349305726014
204.1603,0.000634803920342302
204.6424,0.0006022309876045258
205.1246,0.0005721581075811603
205.6067,0.0005439980879065827
206.0888,0.0005154884681530505
206.5709,0.0004834022601853916
207.053,0.0004517991403712176
207.5351,0.0004271189749083374
208.0173,0.0004109569293165086
208.4994,0.00039694843960632914
208.9815,0.0003817800631432129
209.4636,0.00036512658942375504
209.9457,0.00034562394779314934
210.4278,0.0003206042193132208
210.91,0.000292551940467414
211.3921,0.0002667916028881854
211.8742,0.0002438718992930732
212.3563,0.00022274354456299576
212.8384,0.00020243599845102433
213.3205,0.00018320901236117557
213.8027,0.00016577138711926906
214.2848,0.0001513128782228513
214.7669,0.0001388855409363379
215.249,0.00012533982281472198
215.7311,0.00010992536862612793
216.2132,9.438285704384189e-05
216.6954,7.903798345348641e-05
217.1775,6.412635212463712e-05
217.6596,4.985350462937294e-05
218.1417,3.599471745508316e-05
218.6238,2.287976384684106e-05
219.1059,1.2765581423929758e-05
219.5881,7.61104585759599e-06
220.0702,2.917167793356644e-06
220.5523,7.093584403699158e-07
221.0344,4.2063968778623e-06
221.5165,8.664214883241336e-06
221.9986,1.4935744521535017e-05
222.4808,1.6417481544108047e-05
222.9629,9.442615702588164e-06
223.445,3.5273096343427854e-06
223.9271,9.005281035164641e-07
224.4092,2.420066543780624e-06
224.8913,2.12373562526142e-06
225.3735,1.188722698422827e-06
225.8556,1.8879858425322102e-07
226.3377,9.210386213247608e-07
226.8198,3.1702569157022336e-06
227.3019,7.087135470203877e-06
227.784,1.1591773702523081e-05
228.2662,1.7950354245358686e-05
228.7483,1.5079410273814453e-05
229.2304,1.0807859772361116e-05
229.7125,1.091888325374565e-05
230.1946,1.483984936534242e-05
230.6767,1.6147033638369145e-05
231.1589,1.8027528099126267e-05
231.641,1.424055433956601e-05
232.1231,1.8333930021306893e-06
232.6052,2.4626969034777314e-05
233.0873,4.3592695736912396e-05
233.5694,5.214651263683002e-05
234.0516,5.168951114665699e-05
234.5337,5.20000297188658e-05
235.0158,5.1163268475797784e-05
235.4979,5.2966884860940116e-05
235.98,6.112788897866253e-05
236.4621,7.286305689942314e-05
236.9443,8.176670662175991e-05
237.4264,8.368892519734928e-05
237.9085,8.076406717202006e-05
238.3906,8.291980502364903e-05
238.8727,9.010949308289441e-05
239.3548,0.0001010877113736188
239.837,0.00011877859059782491
240.3191,0.00014024180498743922
240.8012,0.00015749750242126837
241.2833,0.00016543710931839344
241.7654,0.00016796135765546698
242.2475,0.0001768184586849055
242.7297,0.00019445027925499696
243.2118,0.0002131282816979768
243.6939,0.00023103585478526868
244.176,0.00024756194994613937
244.6581,0.00026017315456960087
245.1402,0.00026621420514335984
245.6224,0.0002696311701314229
246.1045,0.0002788011656559369
246.5866,0.00029558963058479973
247.0687,0.0003121290115184351
247.5508,0.0003237759793637979
248.0329,0.00033172921145124004
248.5151,0.0003401431301337097
248.9972,0.00034958659922900093
249.4793,0.0003613651641082449
249.9614,0.0003785161754712747
250.4435,0.0004025181361762714
250.9256,0.00042307064478462
251.4078,0.0004310750804342502
251.8899,0.0004296137424065754
252.372,0.0004327772594594517
252.8541,0.00044405397124338625
253.3362,0.0004605777874578338
253.8183,0.00048105635152798456
254.3005,0.0005055692326257615
254.7826,0.000525748090997158
255.2647,0.0005320292552451172
255.7468,0.0005282049891941943
256.2289,0.0005312161077660507
256.711,0.0005491649928182897
257.1931,0.0005682160151513387
257.6753,0.0005767252131895844
258.1574,0.0005761098976553356
258.6395,0.0005754940972388689
259.1216,0.0005812341329318859
259.6037,0.0005920697958506093
260.0858,0.0006013756553725202
260.568,0.0006063869130923487
261.0501,0.0006127088074465937
261.5322,0.0006252207081918724
262.0143,0.0006417212500598707
262.4964,0.0006566231352561445
262.9785,0.0006661864672356489
263.4607,0.0006711618436713682
263.9428,0.00067683787491165
264.4249,0.0006852787045572014
264.907,0.0006909697671462317
265.3891,0.0006889919325802731
265.8712,0.0006828479899999202
266.3534,0.0006797592902732336
266.8355,0.0006853407694810658
267.3176,0.0006971908059991972
267.7997,0.0007047210268399265
268.2818,0.0007044073080450809
268.7639,0.0007050478374546497
269.2461,0.0007112470566078193
269.7282,0.0007200263340413185
270.2103,0.0007273019917177602
270.6924,0.0007312731770806433
271.1745,0.0007319117669613412
271.6566,0.0007277762065266613
272.1388,0.0007117721840495777
272.6209,0.0007036062826214566
273.103,0.0007133674465457786
273.5851,0.0007306457394909521
274.0672,0.0007432104923979589
274.5493,0.0007453313672181359
275.0315,0.0007413354528621507
275.5136,0.0007424070425632462
275.9957,0.0007533033157591809
276.4778,0.0007601784607238107
276.9599,0.0007589153425467276
277.442,0.0007540723389564376
277.9242,0.0007493835279113731
278.4063,0.000746115421764141
278.8884,0.0007437981696457993
279.3705,0.0007418503977773378
279.8526,0.0007406784374571805
280.3347,0.0007384537978424178
280.8169,0.0007354674082636636
281.299,0.0007321348127814787
281.7811,0.0007295295406258292
282.2632,0.0007275390991222108
282.7453,0.0007241774107069644
283.2274,0.0007159862954035234
283.7096,0.0007007197787795466
284.1917,0.0006859929360638592
284.6738,0.0006709955290707004
285.1559,0.0006571880230397535
285.638,0.000647385644126928
286.1201,0.0006407752448531572
286.6023,0.000632839662478439
287.0844,0.0006160287959911187
287.5665,0.0005854079990617634
288.0486,0.0005636770327115405
288.5307,0.0005613423248333621
289.0128,0.0005581212522612459
289.495,0.0005457548161812744
289.9771,0.0005253029691213184
290.4592,0.0005003189279726118
290.9413,0.00047405407044587647
291.4234,0.0004461584085563836
291.9055,0.00042228591140351017
292.3877,0.00040503962068470415
292.8698,0.0003890773950547855
293.3519,0.00037300524662611643
293.834,0.0003568902346094035
294.3161,0.0003414818414485306
294.7982,0.0003275333316686794
295.2804,0.0003147520788514739
295.7625,0.0002999710263038486
296.2446,0.0002787845826840919
296.7267,0.00026030232719239353
297.2088,0.0002487018110634855
297.6909,0.00024045643743988502
298.1731,0.0002308239127679163
298.6552,0.00021732387055120678
299.1373,0.00020018585403161108
299.6194,0.00018012962237306848
300.1015,0.00014927336663880268
300.5836,0.00012546691044397858
301.0658,0.00011578051535762449
301.5479,0.00011163099031507508
302.03,0.0001027293770980526
302.5121,8.521955289393202e-05
302.9942,6.445990260218623e-05
303.4763,5.175361257583563e-05
303.9585,5.66254181698564e-05
304.4406,5.54934121444368e-05
304.9227,4.253024121679828e-05
305.4048,2.74095868615471e-05
305.8869,1.8513341290674457e-05
306.369,1.746209724743334e-05
306.8512,1.9106638323418038e-05
307.3333,1.611899289972012e-05
307.8154,5.706278193021299e-06
308.2975,2.00148712053736e-06
308.7796,4.930500586472176e-06
309.2617,7.353937061665748e-06
309.7439,1.210057031118979e-05
310.226,5.51748930156361e-06
310.7081,2.013095200828864e-06
311.1902,9.008471560157043e-06
311.6723,1.644384943910604e-05
312.1544,1.59099310827408e-05
312.6366,2.949063345636307e-06
313.1187,6.304084630389401e-06
313.6008,5.187056616674251e-06
314.0829,1.0163271898630263e-05
314.565,4.5991564199900037e-07
315.0471,1.93150407005813e-06
315.5293,2.4241153102983378e-06
316.0114,6.255664292130855e-06
316.4935,1.0807210030189412e-05
316.9756,1.1752269716578546e-05
317.4577,1.149358990226299e-05
317.9398,7.718820628121996e-06
318.422,6.680256254873478e-06
318.9041,1.0780735461103526e-05
319.3862,7.579829140421093e-06
319.8683,2.9033728942633567e-06
320.3504,3.856399195489142e-06
320.8326,3.7931947984132207e-06
321.3147,2.913851198987643e-06
321.7968,6.443308861554796e-07
322.2789,4.410784430263085e-06
322.761,1.2442024368887247e-05
323.2431,2.1160521816399007e-05
323.7253,2.6249370388702275e-05
324.2074,2.370012152448462e-05
324.6895,2.557572837248742e-05
325.1716,3.610294316607161e-05
325.6537,4.7315786264291966e-05
326.1358,5.219839503412287e-05
326.618,5.095573888662636e-05
327.1001,5.0565117772055123e-05
327.5822,5.9438316891120945e-05
328.0643,8.069380773867676e-05
328.5464,9.513898237410804e-05
329.0285,9.873409308895045e-05
329.5107,0.00010043365375017646
329.9928,0.00010214645169594541
330.4749,0.00010497646675949441
330.957,0.00011069187043585264
331.4391,0.00012112799040719938
331.9212,0.0001357399160372943
332.4034,0.00014629410482864863
332.8855,0.0001506956716479534
333.3676,0.0001531163976315501
333.8497,0.00015359691590928113
334.3318,0.0001527250491936523
334.8139,0.0001504436783594198
335.2961,0.00014663609225678553
335.7782,0.00014287054544242502
336.2603,0.0001439632760082117
336.7424,0.00015352442601773643
337.2245,0.00016295897328022223
337.7066,0.00017419946436249525
338.1888,0.00018368584553405214
338.6709,0.00018785738422928471
339.153,0.00018594132365786
339.6351,0.0001803136836629037
340.1172,0.00017451648035642114
340.5993,0.00016929720816520356
341.0815,0.00016191177315467664
341.5636,0.00014616071373056203
342.0457,0.00013364410962777188
342.5278,0.0001329769116962301
343.0099,0.00014267397419137338
343.492,0.0001542136860901831
343.9742,0.0001600556925135802
344.4563,0.00016002975131493378
344.9384,0.00015744751106462452
345.4205,0.00014997634887800997
345.9026,0.00014202161365569295
346.3847,0.00013444324401074711
346.8669,0.00012721738373806208
347.349,0.00011961312138269156
347.8311,0.00011080906646786836
348.3132,0.00010206256707228502
348.7953,9.924608022260957e-05
349.2774,0.00010917103736006724
349.7596,0.00011426007018761324
350.2417,0.00010850655476894456
350.7238,9.83284406256308e-05
351.2059,8.973564889305524e-05
351.688,8.478936539039724e-05
352.1701,8.219136646801303e-05
352.6523,8.001778495077304e-05
353.1344,7.838722302912434e-05
353.6165,7.682367182996046e-05
354.0986,7.579819442776739e-05
354.5807,7.44216622999666e-05
355.0628,7.10597799318332e-05
355.545,6.623447454248891e-05
356.0271,6.30474407020546e-05
356.5092,6.641019585817985e-05
356.9913,7.675952191256003e-05
357.4734,8.057733902998757e-05
357.9555,7.284181905828832e-05
358.4377,6.370949888208883e-05
358.9198,5.6755560557084455e-05
359.4019,5.166260018357517e-05
359.884,4.744073071414638e-05
360.3661,4.3649363921693855e-05
360.8482,4.0257612808950724e-05
361.3304,3.6987872608644986e-05
361.8125,3.3498097706773604e-05
362.2946,3.100936699214586e-05
362.7767,3.147548426801148e-05
363.2588,3.239806966361067e-05
363.7409,3.097774297390811e-05
364.2231,2.620533338569165e-05
364.7052,1.9981414332352974e-05
365.1873,1.3979891356980098e-05
365.6694,8.129758307614463e-06
366.1515,4.646228688706927e-06
366.6336,4.536708342197236e-06
367.1158,6.90770480554761e-06
367.5979,1.1733475681820874e-05
368.08,1.9226215127122623e-05
368.5621,2.7553863565420824e-05
369.0442,3.243603109243364e-05
369.5263,3.444204701288422e-05
370.0085,3.790028032649486e-05
370.4906,4.659843696497451e-05
370.9727,5.1862759563037696e-05
371.4548,4.443740904835054e-05
371.9369,2.894129584547528e-05
372.419,1.7563297015087466e-05
372.9012,1.6292595280119752e-05
373.3833,2.0356577401824256e-05
373.8654,2.3205948963503453e-05
374.3475,2.473421043486386e-05
374.8296,2.515431238827067e-05
375.3117,2.2802585144251307e-05
375.7939,2.070371912793522e-05
376.276,2.3715817161871256e-05
376.7581,3.444729828730181e-05
377.2402,4.444174874419887e-05
377.7223,4.443796181407871e-05
378.2044,3.6855747053146576e-05
378.6866,3.400233642259402e-05
379.1687,4.075809368758404e-05
379.6508,5.085008305139166e-05
380.1329,5.7328836803059616e-05
380.615,6.099081277572151e-05
381.0971,6.0402844598550334e-05
381.5793,5.0136239450508117e-05
382.0614,3.7802586257274634e-05
382.5435,3.5772942026356e-05
383.0256,4.580478659988133e-05
383.5077,5.795147405879564e-05
383.9898,6.490837016532791e-05
384.472,6.739363397209917e-05
384.9541,7.095863350122302e-05
385.4362,7.768268916682045e-05
385.9183,8.37598149775756e-05
386.4004,8.695014601709021e-05
386.8825,8.784300813274499e-05
387.3647,8.819100810038126e-05
387.8468,8.883672574967934e-05
388.3289,8.997246536817515e-05
388.811,9.186360299361057e-05
389.2931,9.503662373795364e-05
389.7752,9.66080300290441e-05
390.2574,9.458689548104596e-05
390.7395,9.237622047415266e-05
391.2216,9.428292281877595e-05
391.7037,0.0001013591484390818
392.1858,0.00011106256289127682
392.6679,0.00012080544675599184
393.1501,0.0001309462734567652
393.6322,0.00014000013969014242
394.1143,0.00014858628853633562
394.5964,0.00015568001840470007
395.0785,0.00015908457040799022
395.5606,0.0001602394628740848
396.0428,0.0001634204841750198
396.5249,0.00017173621420840714
397.007,0.00018380081110786652
397.4891,0.00019239816073328837
397.9712,0.00019326891221981644
398.4533,0.0001956641818869844
398.9355,0.0002014496025555771
399.4176,0.00020883969243539382
399.8997,0.0002153663040619478
400.3818,0.0002204206193227072
400.8639,0.00022622819910864833
401.346,0.00023691902770894775
401.8282,0.00025643345197744324
402.3103,0.0002696125991424854
402.7924,0.0002713912925816384
403.2745,0.0002723489349615766
403.7566,0.00027839885887991935
404.2387,0.0002884886274831699
404.7209,0.00029817361641109273
405.203,0.000304335936027496
405.6851,0.0003070735325403533
406.1672,0.0003068846224283412
406.6493,0.0003044202085569306
407.1314,0.00029758089638818816
407.6136,0.00028263086238769784
408.0957,0.00026500694539775474
408.5778,0.00025127789330963015
409.0599,0.00024386612919468267
409.542,0.000238166144772847
410.0241,0.00022631135640898222
410.5063,0.0002065325258671802
410.9884,0.0001904787059863398
411.4705,0.00018386306998461794
411.9526,0.0001782127859900955
412.4347,0.00016895202051442988
412.9168,0.0001562994069495776
413.399,0.000142733469239484
413.8811,0.00012921466208094988
414.3632,0.00011612143604488249
414.8453,0.00010500202005236668
415.3274,9.630997292982992e-05
415.8095,8.850327224857376e-05
416.2917,8.088456040311609e-05
416.7738,7.358708302687819e-05
417.2559,6.662320461641118e-05
417.738,5.94559181156231e-05
418.2201,5.377498956494265e-05
418.7022,5.2701557311420024e-05
419.1844,5.5549270575914714e-05
419.6665,5.5438329524507196e-05
420.1486,4.920531408076465e-05
420.6307,4.065840675244911e-05
421.1128,3.5365165778922875e-05
421.5949,3.330502730533371e-05
422.0771,2.8918099080180983e-05
422.5592,1.4375860722412467e-05
423.0413,1.0867228751095108e-06
423.5234,9.219938392936105e-07
424.0055,1.672492596305671e-05
424.4876,3.118407490400183e-05
424.9698,2.5354049920203806e-05
425.4519,2.2656121621575797e-06
425.934,1.4028074102951973e-05
426.4161,9.414080384077094e-06
426.8982,6.359196343252073e-06
427.3803,2.0502808181035275e-06
427.8625,2.5220518206274093e-06
428.3446,5.265719058850137e-06
428.8267,5.406640377777448e-06
429.3088,3.377500424365213e-06
429.7909,4.988225814488197e-07
430.273,8.800786808675965e-06
430.7552,1.2748411744601346e-05
431.2373,9.54976497505335e-06
431.7194,4.050662407184554e-06
432.2015,5.839921429861079e-07
432.6836,4.097637796434383e-06
433.1657,8.079534207506109e-06
433.6479,1.427686716884883e-05
434.13,2.2127056936209636e-05
434.6121,2.4048097248010013e-05
435.0942,1.1501624400610115e-05
435.5763,2.8177523922636166e-06
436.0584,5.350937108609193e-06
436.5406,1.136608042547699e-05
437.0227,1.0820248513023102e-05
437.5048,5.497303654841165e-07
437.9869,1.2971079356609051e-05
438.469,1.4505542471533718e-05
438.9511,1.5252842945437893e-05
439.4333,1.3321935280507523e-05
439.9154,1.3506432964338654e-05
440.3975,1.5895777370806425e-05
440.8796,1.2497625812789786e-05
441.3617,3.7798120492049707e-06
441.8438,3.4184584252935065e-06
442.326,6.658601415031432e-06
442.8081,6.346962764899748e-06
443.2902,2.7206256352380876e-06
443.7723,6.854653842110123e-06
444.2544,1.309199928405664e-05
444.7365,9.070638309287108e-06
445.2187,2.258154673649504e-06
445.7008,6.60782939801709e-07
446.1829,6.281203038536599e-06
446.665,1.0090558961265437e-05
447.1471,3.905338260744173e-07
447.6292,2.1281199302737747e-05
448.1114,2.90714673256364e-05
448.5935,1.4441921075750582e-05
449.0756,2.237265947711409e-06
449.5577,2.0501256557938665e-06
450.0398,1.0202018836645886e-05
450.5219,2.12290841619804e-05
451.0041,2.7250943097563208e-05
451.4862,3.0730200904132894e-05
451.9683,3.4822563182038805e-05
452.4504,3.8981717985431544e-05
452.9325,3.828931102739208e-05
453.4146,2.8229479052261676e-05
453.8968,1.4917459613105919e-05
454.3789,1.2503720782266152e-05
454.861,2.294658061643877e-05
455.3431,3.4811779401517375e-05
455.8252,4.7101681672248666e-05
456.3073,5.8696738027385504e-05
456.7895,6.757042202866903e-05
457.2716,7.381192291122115e-05
457.7537,8.079960903857676e-05
458.2358,9.181467837784561e-05
458.7179,0.00010689184849581436
459.2,0.0001197530099024952
459.6822,0.00013019470601934537
460.1643,0.0001391059199042781
460.6464,0.00014532865584500562
461.1285,0.0001506329278889843
461.6106,0.00015726538930366005
462.0927,0.00016607778419262752
462.5748,0.00017650275187296735
463.0569,0.00018778440945552233
463.5391,0.00020032811847428138
464.0212,0.00021241681401995997
464.5033,0.00022220227054338816
464.9854,0.00023321792174131825
465.4675,0.00024712958047262495
465.9496,0.0002637250137906253
466.4318,0.0002821823463363344
466.9139,0.00030227368346743774
467.396,0.0003235358172013759
467.8781,0.00034441979129373745
468.3602,0.0003644222010261165
468.8423,0.00038560146838905135
469.3245,0.00040970690295930327
469.8066,0.00043468498005673224
470.2887,0.00045752215669839355
470.7708,0.00047799432032327076
471.2529,0.0005020421993742829
471.735,0.0005370201479118026
472.2172,0.0005798187617384481
472.6993,0.0006177763115036743
473.1814,0.0006487680433295629
473.6635,0.0006779506796012491
474.1456,0.0007076822025433606
474.6277,0.0007384203409693971
475.1099,0.000771134859314739
475.592,0.0008062985177416341
476.0741,0.0008427820255650821
476.5562,0.0008815134473497419
