wavelength,intensity
124.675,0.0
126.063,0.000617473260117618
127.452,8.240573289645387e-05
128.84,2.822499389174804e-05
130.228,0.0006846779354894834
131.615,0.00012001804652268467
133.003,0.0002300426705387738
134.39,0.00043780985199685864
135.777,0.0005171317339888027
137.164,0.0008223796364913305
138.55,0.0015924986675600085
139.937,0.002015185043187109
141.323,0.002170953455620094
142.709,0.002732199773774353
144.094,0.003023376394319511
145.48,0.004328044128636424
146.865,0.004807258073201851
148.25,0.0052600071463257455
149.635,0.005690218893971399
151.019,0.0068487043372990625
152.403,0.007732188830863716
153.788,0.008892434396641594
155.171,0.010513730219110227
156.555,0.012048440623965914
157.939,0.014228175296548377
159.322,0.016562461327197422
160.705,0.019569502039602952
162.088,0.02312756290419165
163.47,0.02676589117109679
164.853,0.030585933897903518
166.235,0.036565714754635166
167.617,0.04109257998781329
168.998,0.04678465598067845
170.38,0.05052396581823975
171.761,0.055369999922390285
173.142,0.059344322473221696
174.523,0.06250017353823635
175.904,0.0653272405179018
177.284,0.06691393999413824
178.664,0.06839648192119262
180.044,0.06672518504443577
181.424,0.06674528826118122
182.803,0.06410079398294267
184.183,0.061136005906986673
185.562,0.05753317586723863
186.94,0.0528300171573527
188.319,0.04823938991254831
189.698,0.0452673383009713
191.076,0.04256574429277756
192.454,0.038849737894598446
193.831,0.03640803105744231
195.209,0.03440182603292682
196.586,0.03302997301852675
197.963,0.031196701236950484
199.34,0.029445107864944135
200.717,0.02955474458318607
202.093,0.028456350593096754
203.47,0.027551245201445296
204.846,0.026247935137337915
206.221,0.025273758273776484
207.597,0.023755926618918594
208.972,0.022329471017984423
210.347,0.020582280376514703
211.722,0.01883942458207113
213.097,0.017105922165606805
214.472,0.015061823595778828
215.846,0.01267810867185844
217.22,0.010871262971146291
218.594,0.008312748007748576
219.967,0.0066560363880998515
221.341,0.004970183347167944
222.714,0.004060107912785159
224.087,0.0030094069376278556
225.46,0.0015416927087904266
226.832,0.001500594092019003
228.204,0.0008538290971307186
229.577,0.0009288209809186888
230.948,0.0003688256588860702
232.32,1.4982860526627975e-06
233.692,0.00010396844511713821
235.063,0.000733510423633066
236.434,0.00010307141301441129
237.805,2.583937338071213e-05
239.175,0.0008229857392634434
240.545,0.000761580255215153
241.916,0.0013819676574610895
243.286,0.001734001845148547
244.655,0.002337345637442672
246.025,0.00326039167114867
247.394,0.004062944473758647
248.763,0.0045896768756577165
250.132,0.004954090106362805
251.501,0.005466271192908991
252.869,0.00637677817246552
254.237,0.007097245264442718
255.605,0.00806995293488455
256.973,0.00839301056124284
258.34,0.009118607707083202
259.708,0.00995579564650279
261.075,0.010865715918575915
262.442,0.01195994477041527
263.808,0.012705082669628548
265.175,0.014405443386513749
266.541,0.015150576436904848
267.907,0.016346616007992622
269.273,0.01825051088457547
270.639,0.019805212983266523
272.004,0.02177682651037199
273.369,0.023554404720424357
274.734,0.025104001009363133
276.099,0.02759417182417741
277.463,0.029754540300985326
278.828,0.03113418537262368
280.192,0.03297442006284598
281.556,0.03491159725485108
282.919,0.03591297116200276
284.283,0.03687557873585011
285.646,0.03734368402880825
287.009,0.03636205452556092
288.372,0.03659766364395878
289.734,0.034216872559811054
291.097,0.033162927722617405
292.459,0.03063788417870685
293.821,0.02741033358016234
295.183,0.02588041381161743
296.544,0.022745034473833657
297.905,0.019836095131711213
299.266,0.018135695624248598
300.627,0.01598533511641381
301.988,0.013991174566185748
303.348,0.011779646166589336
304.709,0.011076760903825585
306.069,0.009230242140062022
307.428,0.008533466393241167
308.788,0.006828669004064103
310.147,0.005938905285780362
311.507,0.00535016129706089
312.865,0.004596906469523478
314.224,0.0042561021539977255
315.583,0.003241597636390997
316.941,0.002668573529169042
318.299,0.002857027851896525
319.657,0.0020128624573643727
321.015,0.002385906591544348
322.372,0.0012268392895554553
323.729,0.0009940085462649627
325.086,0.0005382241104583275
326.443,0.00042193965701185754
327.8,0.00044631953491732206
329.156,0.0003834594042159612
330.512,0.0004952005112826738
331.868,0.00046078842029319847
333.224,0.0017951503416214613
334.579,0.0005637871009749562
335.935,0.0009135035516618545
337.29,0.001194609168545586
338.645,8.042256462610084e-05
339.999,0.00040031391010287345
341.354,0.0003906502075043073
342.708,0.0002891207199421509
344.062,0.0003477720729939606
345.416,6.739862825894138e-07
346.769,0.0002326076974703551
348.123,0.0006168623085233282
349.476,0.00019145089483280875
350.829,3.898453030229416e-06
352.182,2.992208165366383e-05
353.534,0.000220209259164016
354.887,0.0004268951532766516
356.239,0.0004051966740350141
357.591,0.0001995872184456507
358.942,0.0007458215831402207
360.294,0.0005651593176510195
361.645,0.0007873275009745041
362.996,0.0005298938339584094
364.347,0.0009128732047788573
365.698,0.0006465710420012085
367.048,0.0006501979609895313
368.398,0.00042063532384627086
369.748,0.0005288173954351371
371.098,0.0001524857598192222
372.448,0.00011098469080711577
373.797,0.0002163495967112018
375.146,0.0003689468794404928
376.495,0.0003177336196080512
377.844,0.0004942501421360009
379.192,0.0008354763051911436
380.54,0.001307465504712986
381.889,0.0013623056835337507
383.236,0.0014267028908651897
384.584,0.0015200475665927348
385.932,0.001925127868895503
387.279,0.0024772584013571866
388.626,0.0028901889467643593
389.973,0.0035550982342386125
391.319,0.004142276053394945
392.666,0.004811728687248955
394.012,0.004578854304558871
395.358,0.005533844378766301
396.704,0.005858056024802694
398.049,0.005532001826339078
399.394,0.0066264294798876865
400.74,0.00687630383312999
402.084,0.007242511128040533
403.429,0.007147687561549033
404.774,0.0069553687275465586
406.118,0.007043500919433935
407.462,0.007189043165895832
408.806,0.0075761731284997086
410.15,0.007647450814500171
411.493,0.007170283072893397
412.836,0.006915879919737866
414.179,0.006714673194685131
415.522,0.006396958970365787
416.865,0.006171275390964049
418.207,0.006003671003597245
419.549,0.006291749226771362
420.891,0.006531237402910741
422.233,0.006586358813417767
423.575,0.0067819893929670656
424.916,0.006953264338721783
426.257,0.007235955520457361
427.598,0.007625209267174721
428.939,0.00817149212009106
430.279,0.00808890698077406
431.619,0.008716902185015557
432.959,0.008896328000849649
434.299,0.00988376154424273
435.639,0.009727634318968656
436.978,0.0103978142761492
438.318,0.010301225738385308
439.657,0.010671244207526897
440.996,0.011166148940656779
442.334,0.010850674872183164
443.673,0.010936600849980048
445.011,0.011342258162121869
446.349,0.010815739108398583
447.687,0.011050189358296162
449.024,0.010023441564692754
450.361,0.010472757671715403
451.699,0.009573349646121802
453.036,0.00951874221076553
454.372,0.00968477073092484
455.709,0.00944337211884776
457.045,0.00948722971543784
458.381,0.01042498707562856
459.717,0.01037475812669803
461.053,0.011144212869128473
462.388,0.011407140251671
463.724,0.01342920577352713
465.059,0.014927986406051972
466.394,0.01682076778220536
467.728,0.018967835939782036
469.063,0.021371397092872484
470.397,0.02416548238409064
471.731,0.028298836604680085
473.065,0.03235811052005082
474.398,0.036966314745246476
475.732,0.04023332020984444
477.065,0.044464717614850845
478.398,0.047296638265515376
479.731,0.048480061201298844
481.063,0.04788340393478667
482.396,0.04765887437506304
483.728,0.04481717849888987
485.06,0.04135965796213924
486.391,0.03864504001757833
487.723,0.034433973723959684
489.054,0.03197713856161161
490.385,0.030735597643215783
491.716,0.029982948918450485
493.047,0.029874538952219303
494.377,0.03203802037286479
495.708,0.035230363673582815
497.038,0.03874627857580988
498.368,0.04461307702699753
499.697,0.05250643100937712
501.027,0.05974453940688103
502.356,0.06868229574441012
503.685,0.07572320254397942
505.014,0.08300635165068457
506.342,0.0895766366185859
507.671,0.09157009408959832
508.999,0.09501524528097567
510.327,0.09505127202975006
511.655,0.09192015480665977
512.982,0.08784233414646239
514.31,0.08041032135010416
515.637,0.07235669439948925
516.964,0.0632271816913302
518.291,0.05628241248906234
519.617,0.047998296776268365
520.944,0.04216878091879892
522.27,0.037362400482411094
523.596,0.03180087902665903
524.921,0.0280280492813888
526.247,0.02467869626976051
527.572,0.021837703472802995
528.897,0.018860289063898344
530.222,0.01667076946816289
531.547,0.01493105571048995
532.871,0.013615342359254054
534.196,0.011787787339024355
535.52,0.011469976138261475
536.844,0.00977920154282001
538.167,0.009422808263995518
539.491,0.008509993245082784
540.814,0.007913743279633467
542.137,0.00800588544746114
543.46,0.007152463651393282
544.783,0.007971686704647448
546.105,0.007660964481907198
547.427,0.007719470370293701
548.749,0.00743266738735211
550.071,0.007402856828608514
551.393,0.00756688763403094
552.714,0.007585250123614869
554.035,0.007327127923849655
555.356,0.008009478424694225
556.677,0.007784944016148412
557.998,0.008307079734623777
559.318,0.009100540995652063
560.638,0.009714615231423673
561.958,0.010793497561073132
563.278,0.011364179687183644
564.597,0.012137818963152754
565.917,0.013119865465107298
567.236,0.011779185528482531
568.555,0.012431177553677517
569.874,0.010964079125256555
571.192,0.010360051649035487
572.511,0.009144994997369902
573.829,0.007895807486401105
575.147,0.0071653324254507805
576.464,0.005464898976232928
577.782,0.005015262846946604
579.099,0.00535579562843045
580.416,0.004129960045065613
581.733,0.003437305797095126
583.05,0.0025020019409259186
584.366,0.0019738439853068403
585.683,0.0019400767876668929
586.999,0.001348505935618287
588.315,0.0009700699111775963
589.63,0.0014690428061139
590.946,0.0008768076654270584
592.261,0.0012686603808312372
593.576,0.0010608447111513835
594.891,0.0001460756169013574
596.206,0.0006826317325308304
597.52,0.0004867684095170407
598.834,0.00016457387350623953
600.148,0.00019121330254614054
601.462,4.299450624259232e-05
602.776,0.00026295162665340943
604.089,0.0003565726852450382
605.402,9.314587401829237e-05
606.715,9.901294885234409e-06
608.028,0.00027613557415240666
609.341,0.00018890041436775813
610.653,0.0001312188257513289
611.965,0.00040366929504928985
613.277,9.483811295803126e-05
614.589,0.000625260468533723
615.901,0.0002643432386181804
617.212,0.000213711837446967
618.523,1.0851664031907251e-05
619.834,0.0005746872532286324
621.145,0.0001765747083940726
622.456,0.0003035217218075506
623.766,0.00021067162594204928
625.076,1.73975739707253e-05
626.386,9.117240339229315e-05
627.696,0.00018862403150367473
629.006,0.00012385831368679127
630.315,0.0001800173721396732
631.624,0.0005316588052308018
632.933,0.0002817893008106747
634.242,0.0003080214287877159
635.551,0.0007412927832269941
636.859,0.0006651856703383362
638.167,0.0007409679121411415
639.475,0.0009825556282831197
640.783,0.0006341823013392232
642.09,0.0005861789617878908
643.398,0.00039730764035319404
644.705,0.0008627703252249263
646.012,0.0010564613759034638
647.318,0.0003383314162155319
648.625,0.0014382624829349243
649.931,0.0005790463443656675
651.237,0.0010384673968049797
652.543,0.0007024440199456531
653.849,0.0010110764003276587
655.155,0.0011400696166997894
656.46,0.0008275921203315004
657.765,0.0006555510606728314
659.07,0.0011767897470454703
660.375,0.0004566572237984777
661.679,0.0006140208987276635
662.984,0.0010622169278274468
664.288,0.0010883811722940113
665.592,0.001348840504348493
666.895,0.0007104930647593108
668.199,0.0012592439681636933
669.502,0.0009963020391546376
670.805,0.0017390834107899405
672.108,0.0016360944277525366
673.411,0.00204847705625372
674.713,0.0016497002227809242
676.016,0.0021493131622445792
677.318,0.0020166493874845333
678.62,0.0023070404988370327
679.921,0.0016188665625580028
681.223,0.002486674814024731
682.524,0.001861094323227332
683.825,0.0019370317273397983
685.126,0.0025281176971707143
686.427,0.002452670024098115
687.727,0.0020021659556421264
689.028,0.0026348499709286867
690.328,0.0021876382527308146
691.628,0.002575010656443536
692.927,0.0017972935210236521
694.227,0.002231912848028109
695.526,0.002131105834970311
696.825,0.0021393924720706373
698.124,0.0018799804856063664
699.423,0.002499359332839507
700.721,0.0022649430246971672
702.02,0.0017256861151151597
703.318,0.0014710114279177225
704.616,0.0024253711552421555
705.913,0.0022284895795712163
707.211,0.0022847747074006973
708.508,0.0029879557483172394
709.805,0.0021201232527396276
711.102,0.0025964230551767365
712.399,0.0029788884508464325
713.695,0.0020737830591949728
714.992,0.003362032681620895
716.288,0.002112748194208559
717.584,0.0029265890548463647
718.879,0.002241300167762592
720.175,0.0029892649303050038
721.47,0.0029304293220104717
722.765,0.0029374116259452106
724.06,0.002988198189426085
725.355,0.002734401139042667
726.649,0.0029375570906105173
727.944,0.0037629284503849967
729.238,0.002741907115772512
730.532,0.004068166655243171
731.825,0.0037682039689134667
733.119,0.0036331157830649698
734.412,0.004172692714910653
735.705,0.004287731021057659
736.998,0.0038695346547663696
738.291,0.00474713752703044
739.584,0.00490807963272618
740.876,0.004880189207564638
742.168,0.005257873664567909
743.46,0.004979371865193174
744.752,0.004939019967036993
746.043,0.005385412234286969
747.334,0.0053400660492885785
748.626,0.0055524396118147214
749.916,0.005133389852820297
751.207,0.005531434514144381
752.498,0.005498268570454369
753.788,0.0062928208164724575
755.078,0.005100194816197225
756.368,0.005755270692296719
757.658,0.0051164480681342005
758.947,0.005413409333536403
760.237,0.00591973304289289
761.526,0.005364135602574722
762.815,0.0067967346612070245
764.104,0.006263209059438115
765.392,0.00670958678022156
766.68,0.00727577889699626
767.969,0.007053751329515905
769.257,0.006210899965793694
770.544,0.006997752282194861
771.832,0.006982526980559388
773.119,0.007533105889924463
774.406,0.006880595040756548
775.693,0.007873764740784907
776.98,0.006869845201990357
778.267,0.006495540374044388
779.553,0.006977881808913916
780.839,0.006618870166113896
782.125,0.006143617709266997
783.411,0.006135728675585178
784.697,0.005934032219492575
785.982,0.005730308955730027
787.267,0.005943700770913318
788.552,0.006552407360535096
789.837,0.006778212160491258
791.122,0.00624053596693892
792.406,0.005755736179225702
793.69,0.006551200003813047
794.974,0.006644457400741409
796.258,0.005480279440178062
797.542,0.006347418554184377
798.825,0.00571001663491969
800.108,0.005705259940364149
801.391,0.0054344920123615735
802.674,0.004932008570169192
803.957,0.004503493910285455
805.239,0.003182078344169522
806.522,0.0034052987219053937
807.804,0.002856028994528083
809.085,0.0026376477413247593
810.367,0.0034185360064483373
811.649,0.002355446290629048
812.93,0.002052782810346809
814.211,0.0024455616507867766
815.492,0.0020302745778016285
816.772,0.0014264459032898138
818.053,0.0019444552740926358
819.333,0.0007896015985754712
820.613,0.0014831092392490934
821.893,0.00021490464770248494
823.173,0.0006313893797653275
824.452,0.00013020057309417942
825.732,0.0005481932888540385
827.011,0.00019970359017789638
828.29,1.6117484916023102e-05
829.568,0.00016676069230802244
830.847,5.599419849886727e-05
832.125,0.00034165770822888687
833.403,0.0001378908050667464
834.681,8.565929257715528e-05
835.959,0.0002532248893665435
837.236,0.0006307299399492688
838.514,0.0003512583761391533
839.791,0.0008761530744331765
841.068,0.0001185779463361447
842.345,5.730338048663087e-05
843.621,5.527657281668573e-06
844.898,0.00024484127582267946
846.174,0.0005192991575018779
847.45,0.000438037746639173
848.726,2.04038437204047e-05
850.001,0.0002458789237685366
851.277,0.0001688456858440904
852.552,0.0005014263989578162
853.827,0.00014015035620118285
855.102,5.24254653766672e-05
856.376,0.00023482360920519944
857.651,0.0002208783966244285
858.925,0.0007341407705160633
860.199,0.0002927524877526507
861.473,0.000531353329433657
862.746,0.0002593295564872634
864.02,0.00017157072390750947
865.293,0.00010559280054640047
866.566,0.0005332977071265948
867.839,0.0006289649686768763
869.112,0.0007787790274766253
870.384,0.0003245947029883678
871.656,0.0005844188393376753
872.928,0.0017596569632865368
874.2,0.0003039532669812949
875.472,0.00020045515761531624
876.744,0.00044585404798833946
878.015,7.166074295243846e-05
879.286,0.0006427113795483943
880.557,0.00036568362211543756
881.828,0.0002504271189704709
883.098,0.00024880761236338556
884.369,0.00046389651530859277
885.639,0.0003958335984114158
886.909,0.0001724920001211209
888.178,0.0009284912610106595
889.448,0.0006564529415977352
890.717,0.0003164244376202875
891.987,0.00010613101980803662
893.256,4.470614047103882e-06
894.524,0.00024601953961166676
895.793,8.97856402496991e-05
897.061,0.0009129071465340956
898.33,0.0007758988271035454
899.598,0.0004884848925676641
900.865,0.0013453299570924157
902.133,0.0007183578543302464
903.401,0.000765304150647014
904.668,0.0009431395528070811
905.935,0.0008881684557875402
907.202,0.000859662230209532
908.468,0.0015393507276789827
909.735,0.0009169559130518091
911.001,0.0014873713539425906
912.267,0.002111080199379705
913.533,0.0015467888208983507
914.799,0.001656507969117295
916.064,0.0017710856371574955
917.33,0.001357224117892357
918.595,0.001947117277467755
919.86,0.0018873167535600195
921.124,0.0021864357448309426
922.389,0.0017728215154968266
923.653,0.002038246041460456
924.918,0.0020515172677586374
926.182,0.0016818042744141943
927.445,0.0024127739152265634
928.709,0.0017814039307499435
929.972,0.002144090980760055
931.236,0.0029479966047573883
932.499,0.001599112461009303
933.761,0.002233411134080772
935.024,0.0019319404640540509
936.286,0.0022801877216213477
937.549,0.002531463384472777
938.811,0.00257907396942778
940.073,0.002316345388594508
941.334,0.002746983832591728
942.596,0.0025327143805944177
943.857,0.0029051330167135726
945.118,0.0029332561853396056
946.379,0.0035771652239656947
947.64,0.002538528118384523
948.9,0.003507288847574356
950.161,0.003171701864710951
951.421,0.004053154701783481
952.681,0.004027863245308759
953.94,0.00412384568030054
955.2,0.004680461373275858
956.459,0.004742477808918437
957.719,0.004950007398089854
958.978,0.005162376111793819
960.236,0.005258358546785599
961.495,0.006619869023482337
962.753,0.0058866786221129465
964.012,0.007316058062819787
965.27,0.007344123045579696
966.527,0.006770919531937197
967.785,0.007574781516534938
969.043,0.0071082666372508175
970.3,0.007732722201303175
971.557,0.0071819978272727935
972.814,0.008950775425074083
974.071,0.00924138958224672
975.327,0.00806458528873472
976.583,0.009610641937484357
977.84,0.00901539567822566
979.095,0.009243009088853806
980.351,0.009151972452482466
981.607,0.009180745363280203
982.862,0.009929127124529829
984.117,0.009507745082068315
985.372,0.009415268345510434
986.627,0.009085684204502035
987.882,0.008770704715890464
989.136,0.009538627230513005
990.39,0.008841065974499494
991.644,0.008921551573813894
992.898,0.00834431384012021
994.152,0.008793043239659452
995.405,0.008057200532559297
996.659,0.007698799841353567
997.912,0.008204687156714133
999.165,0.008366007470539671
1000.417,0.007855217995958256
1001.67,0.008078855372401342
1002.922,0.008157847534485257
1004.174,0.007037842343953489
1005.426,0.008216401911093529
1006.678,0.007522462725246162
1007.93,0.007945056973251902
1009.181,0.007395981198761667
1010.432,0.0064802811306536754
1011.683,0.007779256347734905
1012.934,0.007936566685620147
1014.185,0.007031776467410184
1015.435,0.008011985265759683
1016.685,0.006966913773149763
1017.935,0.007577739298062848
1019.185,0.008070316596547817
1020.435,0.006935120046135815
1021.684,0.008149042073412003
1022.934,0.007205907369427098
1024.183,0.006686443351971205
