wavelength,intensity
158.0495,0.0
158.5316,1.3043045575358636e-05
159.0137,5.9858564309193055e-06
159.4958,6.573019703609108e-06
159.9779,3.303376479746909e-06
160.46,1.1481918787283184e-05
160.9422,3.086092999884435e-05
161.4243,4.681848136418451e-05
161.9064,6.765387025833352e-05
162.3885,9.863464374610218e-05
162.8706,0.00014294996914968267
163.3527,0.00019509701515695214
163.8349,0.0002529866667329923
164.317,0.0003167295255116582
164.7991,0.0003878554433779844
165.2812,0.0004678480144534375
165.7633,0.000554891936691429
166.2454,0.0006472649084547232
166.7276,0.0007415609230933766
167.2097,0.0008435505638801212
167.6918,0.0009616252024743034
168.1739,0.0010931107134453618
168.656,0.001225622235189053
169.1381,0.0013493127796285235
169.6203,0.0014685971993558427
170.1024,0.0015588633578832729
170.5845,0.0016478998551066406
171.0666,0.001736247819580888
171.5487,0.001811018112195374
172.0309,0.0018727116162809722
172.513,0.0019272274088981021
172.9951,0.0019778253531962946
173.4772,0.002024175729267521
173.9593,0.0020657989885984854
174.4414,0.002100101011324545
174.9236,0.0021308866682079155
175.4057,0.0021621116283805125
175.8878,0.002194303928577402
176.3699,0.0022247385307351646
176.852,0.0022556483174662636
177.3341,0.0022832027192509455
177.8163,0.0022995185209940044
178.2984,0.0022996790170080597
178.7805,0.0022872776694084144
179.2626,0.0022635291081503825
179.7447,0.002227936813843049
180.2268,0.002192260150029838
180.709,0.0021715096155237846
181.1911,0.0021613765469384945
181.6732,0.0021488884054218825
182.1553,0.00212918521650604
182.6374,0.002103020487157258
183.1195,0.002070465979943754
183.6017,0.002029985587999885
184.0838,0.0019897233930539775
184.5659,0.001959627238684163
185.048,0.0019380339788837642
185.5301,0.001915026317654363
186.0123,0.0018839327605627595
186.4944,0.0018475059839587811
186.9765,0.0018162834481972722
187.4586,0.0017910719972884688
187.9407,0.0017676192141832282
188.4228,0.0017374469333052362
188.905,0.0017016354722355067
189.3871,0.0016707043506868297
189.8692,0.0016542867236780563
190.3513,0.0016490053865629744
190.8334,0.0016376722344889005
191.3155,0.0016170545577104945
191.7977,0.001593439823944545
192.2798,0.0015733516385478567
192.7619,0.001556030191085309
193.244,0.001547893382590249
193.7261,0.001561185943706009
194.2082,0.0015890720049275915
194.6904,0.0016046027823602097
195.1725,0.001608985147843694
195.6546,0.0016013516470905966
196.1367,0.0015808149456425448
196.6188,0.0015486211907990023
197.1009,0.0015214042670378322
197.5831,0.0015070512685119838
198.0652,0.0015062022397488084
198.5473,0.001501979400514944
199.0294,0.0014942702581358872
199.5115,0.0014815294929838587
199.9937,0.001458385094969069
200.4758,0.001423631162016122
200.9579,0.001387986985311496
201.44,0.0013580232037871105
201.9221,0.0013341616649723569
202.4042,0.0013097871207712868
202.8864,0.001285450397383197
203.3685,0.0012594219199375855
203.8506,0.001226423745494895
204.3327,0.0011852945811437567
204.8148,0.0011431990465327624
205.2969,0.001103527438128001
205.7791,0.0010662031445390783
206.2612,0.0010328752501883583
206.7433,0.001006784222936665
207.2254,0.0009823888288002342
207.7075,0.0009433364149874634
208.1896,0.0008846714852335584
208.6718,0.0008255197337330923
209.1539,0.0007749406998413896
209.636,0.0007339400292779394
210.1181,0.0006998309896745204
210.6002,0.000676023757668148
211.0823,0.0006571642638110868
211.5645,0.0006265589831126974
212.0466,0.0005793178784075741
212.5287,0.0005317848746074012
213.0108,0.0004935490024492209
213.4929,0.0004671640880853854
213.975,0.0004394002656708826
214.4572,0.0004096565236968852
214.9393,0.00037813326398396474
215.4214,0.00034364461009231607
215.9035,0.000302004913254172
216.3856,0.00026188018241697934
216.8678,0.00022742202761682343
217.3499,0.00019888636968820125
217.832,0.00017382925678928877
218.3141,0.00015325197069961628
218.7962,0.00013550775443146423
219.2783,0.00011542082972854187
219.7605,9.084055000250595e-05
220.2426,6.788942603968743e-05
220.7247,5.045301300332514e-05
221.2068,4.066156333568627e-05
221.6889,2.9976044195670573e-05
222.171,1.6682624838385416e-05
222.6532,2.6200319703560736e-06
223.1353,5.3753169865146585e-06
223.6174,4.230587651702865e-06
224.0995,2.2503917093442837e-06
224.5816,3.3001229200662067e-06
225.0637,7.486314755917355e-06
225.5459,1.4791511457060881e-05
226.028,2.7110967298960395e-05
226.5101,4.2143969495719714e-05
226.9922,5.206888299377782e-05
227.4743,5.4429677535267985e-05
227.9564,5.574753891472825e-05
228.4386,6.0006259432701505e-05
228.9207,7.091993990025134e-05
229.4028,7.50869207026376e-05
229.8849,6.875154662274065e-05
230.367,5.649217253643513e-05
230.8492,5.177533529918815e-05
231.3313,6.002546076852204e-05
231.8134,6.765682803986143e-05
232.2955,6.870005213122195e-05
232.7776,6.183048331209566e-05
233.2597,5.064774170194954e-05
233.7419,3.166235787470929e-05
234.224,9.254607471500956e-06
234.7061,3.997378700282575e-06
235.1882,3.0899992110301474e-06
235.6703,8.014278758649359e-07
236.1524,2.553443095400675e-06
236.6346,1.0104867835509474e-05
237.1167,1.7876778217646374e-05
237.5988,2.616984970500108e-05
238.0809,3.459994405825287e-05
238.563,4.1798006033397735e-05
239.0451,4.450771212109344e-05
239.5273,5.079485496679674e-05
240.0094,6.497698099913109e-05
240.4915,9.212020266321224e-05
240.9736,0.00011364131198961874
241.4557,0.0001273715277950658
241.9378,0.00013648765290519442
242.42,0.00014772925921656817
242.9021,0.00016302360807984032
243.3842,0.0001774939965905915
243.8663,0.00018875868329552728
244.3484,0.000194616108973447
244.8306,0.00020401574471625908
245.3127,0.0002183408140263685
245.7948,0.00023539518836341268
246.2769,0.000250861427972856
246.759,0.0002627041427695003
247.2411,0.00027626450433409046
247.7233,0.00029457215373919856
248.2054,0.0003206819459327165
248.6875,0.0003396913168832659
249.1696,0.000347444292614802
249.6517,0.0003507876039939979
250.1338,0.0003613077055654485
250.616,0.0003835233601804746
251.0981,0.00040483669747660083
251.5802,0.0004207670178565955
252.0623,0.0004301598167601382
252.5444,0.0004406319634802593
253.0265,0.0004518463678992206
253.5087,0.00046438629483668166
253.9908,0.00047926568149805454
254.4729,0.00049821793332336
254.955,0.0005161968810730959
255.4371,0.0005310463989898591
255.9192,0.0005418098144581467
256.4014,0.0005567141240655089
256.8835,0.0005781430087941107
257.3656,0.0006013509263794179
257.8477,0.0006206778466943326
258.3298,0.0006338249431447854
258.812,0.0006484596582391119
259.2941,0.0006678748271176461
259.7762,0.0006927565581184202
260.2583,0.0007113551853423641
260.7404,0.0007215091038630151
261.2225,0.0007280802276771532
261.7047,0.0007353835236400031
262.1868,0.0007412981169313887
262.6689,0.0007538827500093207
263.151,0.0007779590916465113
263.6331,0.0008127949696942478
264.1152,0.0008372878251564341
264.5974,0.0008477748577606383
265.0795,0.0008536365988902955
265.5616,0.0008638608253325116
266.0437,0.0008805422282677084
266.5258,0.0008947337610150661
267.0079,0.0009039644637932348
267.4901,0.0009090630003122475
267.9722,0.0009163095650556279
268.4543,0.0009261512194280864
268.9364,0.0009377932414748288
269.4185,0.0009508467556572673
269.9006,0.0009656807573430645
270.3828,0.0009804226314075004
270.8649,0.000995407431462999
271.347,0.0010101556089962649
271.8291,0.0010227945488825783
272.3112,0.0010337252487159691
272.7933,0.0010416293137465375
273.2755,0.0010427600590781911
273.7576,0.0010347153782044925
274.2397,0.0010373254991823191
274.7218,0.0010576018188794712
275.2039,0.0010871772097474865
275.686,0.00109894918022857
276.1682,0.0010893232984429835
276.6503,0.001075649619904119
277.1324,0.0010684176016272694
277.6145,0.0010681809791050366
278.0966,0.0010692903896191118
278.5787,0.0010720173672114017
279.0609,0.001075375661451124
279.543,0.001076873947503787
280.0251,0.0010763197271289671
280.5072,0.0010756103444444862
280.9893,0.0010759914618675907
281.4715,0.0010778888059854127
281.9536,0.0010783038651637556
282.4357,0.0010771178432592851
282.9178,0.0010738366452921755
283.3999,0.0010669721677363348
283.882,0.0010560084959121412
284.3642,0.0010441894918559419
284.8463,0.0010345524577793487
285.3284,0.001026819556171625
285.8105,0.0010140526073798414
286.2926,0.0009951140777212965
286.7747,0.000972789130654403
287.2569,0.0009518262177370016
287.739,0.0009327053723646052
288.2211,0.0009131306772364508
288.7032,0.0008921818259033622
289.1853,0.0008688905085766123
289.6674,0.0008412430094061334
290.1496,0.0008091472007705642
290.6317,0.0007761315705680367
291.1138,0.0007455170771075113
291.5959,0.000717553919613316
292.078,0.0006918212203204957
292.5602,0.0006677128764569376
293.0423,0.000644203362132227
293.5244,0.0006204087370635146
294.0065,0.0005966868443274556
294.4886,0.0005730919907324316
294.9707,0.0005487324778801101
295.4529,0.0005237489216136211
295.935,0.0004997564646000911
296.4171,0.0004775210752788051
296.8992,0.0004557431238416881
297.3813,0.00043110393092620283
297.8634,0.0004041353153487119
298.3456,0.0003794567499971502
298.8277,0.0003643479655585881
299.3098,0.0003542090783866854
299.7919,0.0003380272011121531
300.274,0.00031120419566463454
300.7561,0.00028194460858500087
301.2383,0.0002613915666062129
301.7204,0.00024824408224998596
302.2025,0.0002380193224373304
302.6846,0.00022870822618746851
303.1667,0.00022037222807738173
303.6488,0.00021331001555316713
304.131,0.00020824159021987296
304.6131,0.00020303172474367854
305.0952,0.0001954855997662091
305.5773,0.00018589302938897806
306.0594,0.00017532793074772574
306.5415,0.00016217569454576544
307.0237,0.0001488441004114815
307.5058,0.00013816359980241893
307.9879,0.0001314556422264488
308.47,0.00012455116188764883
308.9521,0.00011220004808575631
309.4343,9.762191874623438e-05
309.9164,8.577096095188934e-05
310.3985,8.128463672093229e-05
310.8806,7.915469460328444e-05
311.3627,7.567673143223598e-05
311.8448,7.02034294471705e-05
312.327,6.449728702117015e-05
312.8091,5.93421162591312e-05
313.2912,5.497129097242797e-05
313.7733,5.185078297226075e-05
314.2554,5.1604850711448276e-05
314.7375,5.066194875092785e-05
315.2197,4.662344718976298e-05
315.7018,4.0048652817237124e-05
316.1839,3.405007307692562e-05
316.666,2.9435347185902025e-05
317.1481,2.629444503965876e-05
317.6302,2.4849030544012905e-05
318.1124,2.577801153606343e-05
318.5945,2.6437092539281045e-05
319.0766,2.548768830822141e-05
319.5587,2.3865296651940798e-05
320.0408,2.3998178623698806e-05
320.5229,3.0695493034990625e-05
321.0051,3.6320592247126224e-05
321.4872,3.599977962543584e-05
321.9693,2.4986644966215568e-05
322.4514,1.5669885292051078e-05
322.9335,1.0878182240392732e-05
323.4156,9.50527703158027e-06
323.8978,9.36825416568319e-06
324.3799,1.2103411720985454e-05
324.862,1.4212339043318615e-05
325.3441,1.3695910388545463e-05
325.8262,8.52687199508058e-06
326.3083,6.833454791552706e-06
326.7905,1.1440189823628764e-05
327.2726,1.9173624801791943e-05
327.7547,2.6058278306710556e-05
328.2368,3.300537494362332e-05
328.7189,3.806106242105876e-05
329.201,4.072519442911376e-05
329.6832,4.0899208959398425e-05
330.1653,3.968522874625612e-05
330.6474,3.589916171644294e-05
331.1295,3.159162810561482e-05
331.6116,2.82468135915441e-05
332.0938,2.5024233035730916e-05
332.5759,2.417811356586147e-05
333.058,2.6948488116634575e-05
333.5401,3.272925391593745e-05
334.0222,3.700866920696172e-05
334.5043,4.0096006414616746e-05
334.9865,4.129075135018329e-05
335.4686,3.96159778679256e-05
335.9507,3.310392240554668e-05
336.4328,2.9200659343717785e-05
336.9149,2.92184157305296e-05
337.397,3.159636055605947e-05
337.8792,3.217879137830462e-05
338.3613,3.0563503246513165e-05
338.8434,2.8343591233372894e-05
339.3255,2.5568479383332956e-05
339.8076,2.1785961691353273e-05
340.2898,2.1822066021282485e-05
340.7719,2.7293268466345388e-05
341.254,3.3891443859408264e-05
341.7361,3.416697333078856e-05
342.2182,2.730273821605688e-05
342.7003,2.2139028678164413e-05
343.1825,2.2195556247102737e-05
343.6646,2.6744284819476513e-05
344.1467,3.133326346474076e-05
344.6288,3.615338061435575e-05
345.1109,4.021704756261875e-05
345.593,4.199777265826394e-05
346.0752,4.171958118350852e-05
346.5573,4.234876919800554e-05
347.0394,4.565688297701928e-05
347.5215,4.9347966429209114e-05
348.0036,4.70277177387622e-05
348.4857,3.883644727301156e-05
348.9679,3.115007011407521e-05
349.45,2.89946765288208e-05
349.9321,3.103583671240957e-05
350.4142,3.3712692029856764e-05
350.8963,3.6868688559536726e-05
351.3784,3.950618113855182e-05
351.8606,4.0442561433244306e-05
352.3427,3.9764250001273095e-05
352.8248,3.7753870140863296e-05
353.3069,3.2675984755502e-05
353.789,2.7121324383130257e-05
354.2711,2.5422874102182754e-05
354.7533,2.838679908779127e-05
355.2354,3.099440352690794e-05
355.7175,2.784817252509226e-05
356.1996,2.151102377627856e-05
356.6817,1.644852855250675e-05
357.1638,1.6360929731058836e-05
357.646,1.6923524021778275e-05
358.1281,1.3710117437523787e-05
358.6102,7.1258484664642646e-06
359.0923,2.5845191967324414e-06
359.5744,6.321462809071419e-06
360.0565,1.2229781724559882e-05
360.5387,1.4280111030885177e-05
361.0208,8.425361902807132e-06
361.5029,1.3906615956242751e-06
361.985,4.807388991400627e-06
362.4671,9.992409102760581e-06
362.9492,1.351301281603271e-05
363.4314,1.6153763803550687e-05
363.9135,1.632985362972707e-05
364.3956,1.2194860507241831e-05
364.8777,1.29327785102337e-07
365.3598,8.185640983203261e-06
365.8419,7.793511884934998e-06
366.3241,2.7697829944675225e-06
366.8062,8.046862843678141e-07
367.2883,1.2509767263520748e-06
367.7704,1.6093677199134514e-06
368.2526,3.299531363760625e-06
368.7347,1.5213237765896955e-05
369.2168,2.09493168200175e-05
369.6989,1.5728483308058944e-05
370.181,7.72455678475727e-06
370.6631,3.3607913831436083e-06
371.1453,6.139452571017038e-06
371.6274,6.416460933161288e-06
372.1095,2.0420475180471474e-06
372.5916,5.4318397066308075e-06
373.0737,8.703553377562545e-06
373.5558,6.171120228654387e-06
374.038,2.57475366886816e-06
374.5201,2.5244422414724003e-07
375.0022,3.403407681256402e-06
375.4843,1.406051757213763e-06
375.9664,8.37948719619146e-06
376.4485,2.110734963240709e-05
376.9307,2.6453660964659526e-05
377.4128,2.241840326553099e-05
377.8949,1.8567522029679162e-05
378.377,1.929999480536637e-05
378.8591,2.4583266600496892e-05
379.3412,3.0196229210723708e-05
379.8234,3.586690250250001e-05
380.3055,4.028748640238262e-05
380.7876,4.153195116055111e-05
381.2697,4.006256408806265e-05
381.7518,3.958519754474662e-05
382.2339,4.0853339101604926e-05
382.7161,4.397382285766127e-05
383.1982,5.041427091413169e-05
383.6803,5.988048098543266e-05
384.1624,6.85493992261856e-05
384.6445,7.496201504336059e-05
385.1266,7.854713718451859e-05
385.6088,7.593449481916011e-05
386.0909,6.414836577732025e-05
386.573,5.247967520860498e-05
387.0551,5.226302983374098e-05
387.5372,6.14084418298181e-05
388.0193,7.363736531285267e-05
388.5015,8.858778721911717e-05
388.9836,0.0001033982236291345
389.4657,0.00011453301038795107
389.9478,0.0001210083699640952
390.4299,0.0001253419562964798
390.912,0.00012821531983029034
391.3942,0.00013082645906077394
391.8763,0.00013420914287604627
392.3584,0.00013892806510682932
392.8405,0.0001439961510225711
393.3226,0.00014801335170791286
393.8047,0.00015166805444730938
394.2869,0.0001579823846389586
394.769,0.00017407315254478695
395.2511,0.00018926742171832786
395.7332,0.0001957291561041549
396.2154,0.00018552839796127498
396.6975,0.00018059763068958308
397.1796,0.00018847429987485197
397.6617,0.00020405332308813008
398.1438,0.00021852196602289758
398.6259,0.0002342442234432814
399.1081,0.000245592067448551
399.5902,0.00024932958807072906
400.0723,0.0002439119505642544
400.5544,0.00024091547543537235
401.0365,0.0002405224783979344
401.5186,0.00024257134820878447
402.0008,0.0002468741445203458
402.4829,0.0002539469759651278
402.965,0.0002624830364782336
403.4471,0.00027392232926975964
403.9292,0.0002866860293506847
404.4113,0.00029329604071868143
404.8935,0.0002914365659020612
405.3756,0.0002889488291959797
405.8577,0.0002920601729222326
406.3398,0.0003029051940677575
406.8219,0.00030099984939334373
407.304,0.00028230953094203454
407.7862,0.0002584640417286864
408.2683,0.00024761339594943626
408.7504,0.00025025028242567924
409.2325,0.0002507398195126593
409.7146,0.000243164698578572
410.1967,0.00022964991594244473
410.6789,0.0002163937694812334
411.161,0.00020338268249284273
411.6431,0.00019063265609045647
412.1252,0.00017683373247476272
412.6073,0.00016339236100639375
413.0894,0.00015482905011265376
413.5716,0.00015336354209790682
414.0537,0.0001540347645518554
414.5358,0.00015213771136336415
415.0179,0.00014772896828723755
415.5,0.00014074991306335682
415.9821,0.00012794451311171033
416.4643,0.00011402044139563074
416.9464,0.00010479065989367552
417.4285,0.0001012454920472552
417.9106,9.7692953991126e-05
418.3927,8.870110419339137e-05
418.8748,7.776642832581556e-05
419.357,6.929989992272652e-05
419.8391,6.67485466696841e-05
420.3212,6.477308802659235e-05
420.8033,6.233209396629621e-05
421.2854,5.910597861911606e-05
421.7675,5.355543489677251e-05
422.2497,4.2091587669742636e-05
422.7318,3.150580395308365e-05
423.2139,2.5174575616147944e-05
423.696,2.5737169906867382e-05
424.1781,2.4556336242126376e-05
424.6602,1.998777598704907e-05
425.1424,1.3708337919784865e-05
425.6245,7.454947725254975e-06
426.1066,9.201027986446186e-07
426.5887,7.586050179274058e-06
427.0709,1.0015790123297603e-05
427.553,7.545800106383593e-06
428.0351,8.574521370613e-06
428.5172,1.6620768413874675e-05
428.9993,2.4368114662863383e-05
429.4814,2.5147048852649673e-05
429.9636,1.6033018433701465e-05
430.4457,9.863968652116615e-06
430.9278,8.540783265906114e-06
431.4099,1.0687002879601828e-05
431.892,1.3447907680663443e-05
432.3741,1.6987746671511345e-05
432.8563,1.98927778629592e-05
433.3384,2.1433486260847715e-05
433.8205,2.1118598899857506e-05
434.3026,1.7391716593535602e-05
434.7847,9.965182966237273e-06
435.2668,3.867454510052479e-06
435.749,6.482162473658314e-06
436.2311,1.490189974274024e-05
436.7132,1.8820557814980807e-05
437.1953,1.4069691543696328e-05
437.6774,5.752647479499016e-06
438.1595,1.1244418628236334e-08
438.6417,3.5019599920019404e-06
439.1238,6.0302473979488465e-06
439.6059,8.243351664752752e-06
440.088,1.0064326833288395e-05
440.5701,1.1998643220209127e-05
441.0522,1.447484457833175e-05
441.5344,1.4440514917319282e-05
442.0165,6.96219102034946e-06
442.4986,3.1332070654485235e-06
442.9807,9.914871587329736e-06
443.4628,6.892940142018942e-06
443.9449,4.638994246018989e-06
444.4271,7.735801203385508e-06
444.9092,1.54446720484005e-05
445.3913,2.3251498799033274e-05
445.8734,3.518888199985942e-05
446.3555,4.295842130795181e-05
446.8376,4.1267666107799056e-05
447.3198,2.150155402656707e-05
447.8019,8.774578924809808e-06
448.284,8.230924133513352e-06
448.7661,1.312768661527864e-05
449.2482,1.4219738345960568e-05
449.7303,9.871663732911361e-06
450.2125,4.429462093288512e-06
450.6946,1.6543550920707507e-06
451.1767,8.329471595436712e-06
451.6588,1.3214402951090361e-05
452.1409,1.4276265914898896e-05
452.623,1.8412146371842506e-05
453.1052,3.268959539935256e-05
453.5873,5.844658729127912e-05
454.0694,7.797773999628497e-05
454.5515,8.887454656265916e-05
455.0337,9.514363724339787e-05
455.5158,0.00010075867030069422
455.9979,0.0001061520152080626
456.48,0.00011694796627315724
456.9621,0.00013890968807077887
457.4442,0.0001670786780663837
457.9264,0.00018881046871637661
458.4085,0.00020429717035540652
458.8906,0.00022136483046521538
459.3727,0.0002488338929795844
459.8548,0.0002813418030119684
460.3369,0.00030833849326986356
460.8191,0.0003242655649389997
461.3012,0.00034305358715717353
461.7833,0.00037938275697073067
462.2654,0.0004268537928234827
462.7475,0.00047194332966404916
463.2296,0.0005057719133927561
463.7118,0.0005386828090362624
464.1939,0.0005757423569343265
464.676,0.0006176041783163943
465.1581,0.0006629988515365533
465.6402,0.000710455243946331
466.1223,0.0007614857031827035
466.6045,0.0008165445638836463
467.0866,0.0008822950774846586
467.5687,0.0009434843040638589
