wavelength,intensity
170.6707,0.0
171.1528,8.006224865013524e-06
171.6349,1.0561224432332983e-05
172.117,1.1996941283625036e-05
172.5991,2.90673312803195e-06
173.0812,4.175092881888219e-06
173.5634,6.6292514943946435e-06
174.0455,3.0176402376842356e-06
174.5276,3.009280868251256e-06
175.0097,8.700299817881843e-06
175.4918,1.4393461946914622e-05
175.9739,2.2744244115818818e-05
176.4561,3.657592152531754e-05
176.9382,5.667594289693972e-05
177.4203,7.97171579758051e-05
177.9024,0.00010742846764613212
178.3845,0.00013618033455562234
178.8666,0.00016274717672753515
179.3488,0.00018718485259334837
179.8309,0.00021308343009284047
180.313,0.00024515475217641624
180.7951,0.0002865072532770223
181.2772,0.00032713592220306054
181.7593,0.00036463103979727564
182.2415,0.00040286240255083157
182.7236,0.0004436952068905173
183.2057,0.0004878109062850747
183.6878,0.0005357725459656858
184.1699,0.0005885476114213075
184.652,0.000647684816455243
185.1342,0.0007096483999360946
185.6163,0.0007746429821597277
186.0984,0.000842149739153214
186.5805,0.0009112546679362073
187.0626,0.0009815979859031814
187.5447,0.0010544234159425118
188.0269,0.0011317757063661982
188.509,0.001212741339076112
188.9911,0.0013001340855815099
189.4732,0.001395030384405664
189.9553,0.0014966738192889776
190.4374,0.0016029236352403482
190.9196,0.0017146424377250471
191.4017,0.001830145745918818
191.8838,0.0019481442580048228
192.3659,0.0020676240852658713
192.848,0.0021907671976815696
193.3301,0.0023197434431760813
193.8123,0.0024533367371474394
194.2944,0.002587891067674259
194.7765,0.0027215241219874678
195.2586,0.0028568765686446057
195.7407,0.002996651626009296
196.2228,0.00314057630539298
196.705,0.0032858547759284542
197.1871,0.0034314042956236183
197.6692,0.003577140494972592
198.1513,0.0037210186256633774
198.6334,0.0038638334096507683
199.1155,0.004003167709079578
199.5977,0.00413869568309952
200.0798,0.004270251986874362
200.5619,0.004394894355107158
201.044,0.004511133714507383
201.5261,0.00461999365143658
202.0082,0.00471772893564531
202.4904,0.004806756220106541
202.9725,0.004882060852924922
203.4546,0.004940862519464216
203.9367,0.0049826545178069375
204.4188,0.005008130229524381
204.9009,0.005017905455033017
205.3831,0.005011931706111072
205.8652,0.004988851312549017
206.3473,0.004945497993465334
206.8294,0.004889620166698713
207.3115,0.004825176410674376
207.7936,0.004753008965804452
208.2758,0.004671096358123388
208.7579,0.004576353766962242
209.24,0.004463631258286924
209.7221,0.004348382998139658
210.2042,0.004232960665276242
210.6863,0.004114483089559159
211.1685,0.003990153955238991
211.6506,0.003859599418125897
212.1327,0.0037247774326149125
212.6148,0.0035871407058302354
213.0969,0.0034468589465480584
213.579,0.003305278672686907
214.0612,0.0031605340574731096
214.5433,0.0030162127444353557
215.0254,0.002871695538981654
215.5075,0.002728423511062982
215.9896,0.0025887929485991627
216.4717,0.002457528543919371
216.9539,0.0023355675743504016
217.436,0.0022208158335940507
217.9181,0.0021163101389797116
218.4002,0.0020172278519702378
218.8823,0.0019163961099193376
219.3644,0.0018123495987651514
219.8466,0.001712075471264595
220.3287,0.0016272012029978802
220.8108,0.0015602588489057854
221.2929,0.0014921062287983357
221.775,0.0014178998542030234
222.2571,0.001342787719625066
222.7393,0.00127238815532084
223.2214,0.0012073606011064036
223.7035,0.0011477773044321934
224.1856,0.001097690425991446
224.6677,0.001054787562487997
225.1498,0.0010112136219952651
225.632,0.0009645737712400776
226.1141,0.0009159235988103465
226.5962,0.0008683270754396564
227.0783,0.0008216518282825775
227.5604,0.0007783707566493302
228.0425,0.0007411264686263263
228.5247,0.0007061616119086842
229.0068,0.0006731411328839798
229.4889,0.0006422643181436838
229.971,0.0006129856751928949
230.4531,0.0005831644490405107
230.9352,0.000551845906599899
231.4174,0.0005215359191720829
231.8995,0.0004940494008978772
232.3816,0.0004687802490051687
232.8637,0.00044503867005107157
233.3458,0.00042235617083685343
233.8279,0.0004010783754072839
234.3101,0.0003819315403480193
234.7922,0.0003662415275951119
235.2743,0.00035087594953406103
235.7564,0.00033365438780835733
236.2385,0.0003155316239928545
236.7206,0.0002980960352562623
237.2028,0.0002821185843247081
237.6849,0.0002674608858132632
238.167,0.0002534502626213259
238.6491,0.00023993242522722717
239.1312,0.00022768216692661426
239.6133,0.00021703560807278995
240.0955,0.0002076305416491397
240.5776,0.0001985246475538044
241.0597,0.00018901824074665687
241.5418,0.00017944976901564504
242.0239,0.00017191746318137975
242.506,0.00016773588742424102
242.9882,0.00016375083442993213
243.4703,0.0001587807916986073
243.9524,0.00015345736680702986
244.4345,0.0001486974235406302
244.9166,0.00014509038472323264
245.3987,0.00014238745728894023
245.8809,0.00013957620716721584
246.363,0.0001364488623277792
246.8451,0.00013347740712132996
247.3272,0.0001311765440219463
247.8093,0.00012898919184972394
248.2914,0.00012612373189606175
248.7736,0.00012208020210629944
249.2557,0.00011722803424209512
249.7378,0.00011314983537376793
250.2199,0.00011006816643923771
250.702,0.00010760913476044349
251.1841,0.00010533804342922602
251.6663,0.00010372901027804278
252.1484,0.00010346314935808322
252.6305,0.00010485771910438207
253.1126,0.00010765655624133359
253.5947,0.0001109893456764056
254.0768,0.00011526227324335718
254.559,0.0001196883751028771
255.0411,0.00012326084181815336
255.5232,0.00012730524439590754
256.0053,0.00013349137172919944
256.4874,0.0001425099385371288
256.9695,0.0001534269646919807
257.4517,0.00016397194072119886
257.9338,0.00017204101117044722
258.4159,0.00018245822073530404
258.898,0.00019476045840965338
259.3801,0.0002096483789980576
259.8622,0.00022821665259517416
260.3444,0.00025080062374275766
260.8265,0.0002764393528617896
261.3086,0.0003035586698325386
261.7907,0.0003372451345832405
262.2728,0.0003639446405299133
262.7549,0.0003859116960319296
263.2371,0.0003997334576000765
263.7192,0.00040227331914455966
264.2013,0.00039270964774750297
264.6834,0.00037145527212904784
265.1655,0.0003378040583155721
265.6476,0.0002848753336851641
266.1298,0.00023545924130436956
266.6119,0.00018745144083663447
267.094,0.00014422710042285696
267.5761,0.00010997414777722756
268.0582,8.517809546431949e-05
268.5403,6.624203870508488e-05
269.0225,4.919784689461222e-05
269.5046,3.4186169817786915e-05
269.9867,2.1997603081730703e-05
270.4688,1.4011796606904114e-05
270.9509,8.078360792539299e-06
271.433,2.4589250047063187e-06
271.9152,3.049419418231653e-06
272.3973,7.835609359074864e-06
272.8794,1.116954311618061e-05
273.3615,1.2904359563454876e-05
273.8436,1.4413031793220599e-05
274.3257,1.6008231254733143e-05
274.8079,1.7208227464717267e-05
275.29,1.703654036907751e-05
275.7721,1.5623535400862072e-05
276.2542,1.4989799191163123e-05
276.7363,1.738827392979e-05
277.2184,2.2136070896636502e-05
277.7006,2.394069098796945e-05
278.1827,1.9629312261155038e-05
278.6648,1.4840528200447187e-05
279.1469,1.4045020736460248e-05
279.629,1.6808752400850996e-05
280.1111,1.9185460776725762e-05
280.5933,1.858953083354012e-05
281.0754,1.585750076854196e-05
281.5575,1.430267744929648e-05
282.0396,1.4443773325822158e-05
282.5217,1.5103407094767943e-05
283.0038,1.60037897336191e-05
283.486,1.69875042304025e-05
283.9681,1.723170061287565e-05
284.4502,1.6254255643166985e-05
284.9323,1.4336231298760645e-05
285.4144,1.2002934427835687e-05
285.8965,8.627902053958516e-06
286.3787,6.284374168240294e-06
286.8608,6.911137771648856e-06
287.3429,9.698570478840304e-06
287.825,1.1855719337722757e-05
288.3071,1.266551143184285e-05
288.7892,1.2119504961790595e-05
289.2714,9.965905440741632e-06
289.7535,5.974277443560863e-06
290.2356,2.4464780781782107e-06
290.7177,6.025340389905821e-07
291.1998,3.75104893302803e-08
291.6819,2.840003637233421e-07
292.1641,5.550883139895935e-07
292.6462,6.705436188438132e-07
293.1283,2.487930755944992e-08
293.6104,1.2384522186691363e-06
294.0925,1.3191172244040822e-06
294.5746,1.4146147771781722e-06
295.0568,5.671095139305696e-06
295.5389,8.958640214645019e-06
296.021,1.0967895148309775e-05
296.5031,1.207414907914785e-05
296.9852,1.214225563544462e-05
297.4673,1.1498879967257988e-05
297.9495,1.097062988401755e-05
298.4316,1.0329974405072162e-05
298.9137,1.0152793593905977e-05
299.3958,1.1634462732968529e-05
299.8779,1.5123398788603311e-05
300.36,1.8692282224290856e-05
300.8422,2.108676638226614e-05
301.3243,2.268090880054412e-05
301.8064,2.3996011200185726e-05
302.2885,2.489399367205932e-05
302.7706,2.579373626638313e-05
303.2527,2.7348166831032275e-05
303.7349,2.9623345719344883e-05
304.217,3.156364070400973e-05
304.6991,3.230760033943403e-05
305.1812,3.259953337623878e-05
305.6633,3.360620704602981e-05
306.1454,3.583619491165369e-05
306.6276,3.787138134632052e-05
307.1097,3.7919195581806956e-05
307.5918,3.615358426488718e-05
308.0739,3.5573893027171986e-05
308.556,3.765585604937939e-05
309.0381,4.101430060258938e-05
309.5203,4.4260873130533884e-05
310.0024,4.7434369059450284e-05
310.4845,4.9828387730496586e-05
310.9666,5.050057994888055e-05
311.4487,4.976307409577371e-05
311.9308,4.926243320600856e-05
312.413,4.922524273991171e-05
312.8951,4.97408664902035e-05
313.3772,5.0868799504994505e-05
313.8593,5.255706241054834e-05
314.3414,5.457029337839815e-05
314.8235,5.706074542489869e-05
315.3057,5.977972246059663e-05
315.7878,6.2162724607657e-05
316.2699,6.424383908598346e-05
316.752,6.576607832020016e-05
317.2341,6.57812066453921e-05
317.7162,6.50787092884025e-05
318.1984,6.546768180343359e-05
318.6805,6.735848001131663e-05
319.1626,7.09631913940693e-05
319.6447,7.744839407923252e-05
320.1268,8.755687913608598e-05
320.6089,9.613400917303016e-05
321.0911,0.00010099912339244679
321.5732,0.00010229652274232054
322.0553,9.906730414894718e-05
322.5374,8.876729061610609e-05
323.0195,7.767624023332517e-05
323.5016,7.236634355562128e-05
323.9838,7.27044034377949e-05
324.4659,7.436449468650093e-05
324.948,7.658006700379288e-05
325.4301,7.888684566623236e-05
325.9122,8.052855987888792e-05
326.3943,8.135799940046882e-05
326.8765,8.24006901213899e-05
327.3586,8.495713463771807e-05
327.8407,8.859821218679752e-05
328.3228,9.066002835285988e-05
328.8049,8.977856096932083e-05
329.287,8.820618491379496e-05
329.7692,8.816627910727905e-05
330.2513,8.94135901240654e-05
330.7334,9.078619470590288e-05
331.2155,9.241040467049982e-05
331.6976,9.383270967965057e-05
332.1797,9.353925896150443e-05
332.6619,9.071079552105205e-05
333.144,8.821825848101546e-05
333.6261,8.895649165744881e-05
334.1082,9.184202573492334e-05
334.5903,9.448007592848879e-05
335.0724,9.61015220644449e-05
335.5546,9.712525389065428e-05
336.0367,9.803426258415816e-05
336.5188,9.878854536199705e-05
337.0009,9.990275621002742e-05
337.483,0.0001018792815939981
337.9651,0.00010423954276504881
338.4473,0.00010609654468235884
338.9294,0.00010692035957021453
339.4115,0.00010815554853155862
339.8936,0.00011141473284598523
340.3757,0.00011634826394631796
340.8578,0.00012010726485073967
341.34,0.00012048940052650135
341.8221,0.00012053633712517375
342.3042,0.00012456430219574824
342.7863,0.00013284318118059115
343.2684,0.0001434420276241947
343.7505,0.00015656478298731944
344.2327,0.00017127106669697693
344.7148,0.0001847185476812888
345.1969,0.00019542261356613112
345.679,0.0002068047387441915
346.1611,0.0002230022292261335
346.6432,0.00024341223095070285
347.1254,0.0002668265628960809
347.6075,0.00029221955370718733
348.0896,0.0003208862268110294
348.5717,0.00035234363951878756
349.0538,0.0003864211132898349
349.5359,0.000428484839627349
350.0181,0.00048334620780102666
350.5002,0.000550775286663239
350.9823,0.0006251305200993821
351.4644,0.0007042550550287261
351.9465,0.0007913704489056052
352.4286,0.0008975664429308122
352.9108,0.0010172794985385696
353.3929,0.001130702177136232
353.875,0.0012387785444016419
354.3571,0.0013215338773770503
354.8392,0.0013324194831641958
355.3214,0.0012658500034975048
355.8035,0.0011572892388966225
356.2856,0.0009924651661660548
356.7677,0.0007990306181806753
357.2498,0.0006226493777914611
357.7319,0.0004746701133034519
358.2141,0.0003546321866098419
358.6962,0.0002647173737373502
359.1783,0.00020769362482566121
359.6604,0.00016170943180523453
360.1425,0.0001274172036999722
360.6246,0.00010091359016924624
361.1068,7.989501277325387e-05
361.5889,6.365974996655382e-05
362.071,5.075237928452709e-05
362.5531,3.9965214285216986e-05
363.0352,3.1461742705962136e-05
363.5173,2.577185353189877e-05
363.9995,2.4768700107008168e-05
364.4816,2.449810673660396e-05
364.9637,2.305454449102968e-05
365.4458,2.076506642611739e-05
365.9279,1.8597114391424794e-05
366.41,1.705050497694699e-05
366.8922,1.6047312761478975e-05
367.3743,1.5308235889986824e-05
367.8564,1.3573516419156096e-05
368.3385,1.3792760762706908e-05
368.8206,1.828707100378931e-05
369.3027,2.4080341915486412e-05
369.7849,2.7600407409496906e-05
370.267,2.787898679002647e-05
370.7491,2.6638095613802355e-05
371.2312,2.618129777416075e-05
371.7133,2.675960224873335e-05
372.1954,2.7479274133873535e-05
372.6776,2.903191063431723e-05
373.1597,3.0153244402125468e-05
373.6418,3.0353248619278335e-05
374.1239,2.9444351448684534e-05
374.606,2.7118512066267654e-05
375.0881,2.2948927446372394e-05
375.5703,1.70092948372655e-05
376.0524,1.1601980473205461e-05
376.5345,5.847611661833646e-06
377.0166,1.5869855567448705e-06
377.4987,5.491775997559496e-08
377.9808,9.185609216805854e-08
378.463,3.655042205437144e-08
378.9451,8.887357679822379e-07
379.4272,2.3177030588040407e-06
379.9093,3.4419752128514825e-06
380.3914,4.796697338500558e-06
380.8735,4.895249649246096e-06
381.3557,3.016660775604501e-06
381.8378,4.386681080686369e-07
382.3199,1.6701283106122137e-06
382.802,3.2953322837554275e-06
383.2841,5.446657707203421e-06
383.7662,9.119378669809329e-06
384.2484,1.4315458944554794e-05
384.7305,2.1150930846133093e-05
385.2126,3.121743480057891e-05
385.6947,4.152647684031339e-05
386.1768,5.0060452359883125e-05
386.6589,5.818019300088011e-05
387.1411,6.859565698975324e-05
387.6232,8.301304787411087e-05
388.1053,9.865689983989417e-05
388.5874,0.00012014469775794537
389.0695,0.00013920522378246106
389.5516,0.00016260389403220768
390.0338,0.00019060904232645498
390.5159,0.00022318672690996462
390.998,0.000262651096654885
391.4801,0.0003095521049725204
391.9622,0.00035593424082900547
392.4443,0.00039685926976649593
392.9265,0.0004342120744298189
393.4086,0.0004472322772039022
393.8907,0.0004193876734119321
394.3728,0.0003777764391599665
394.8549,0.0003305272854100295
395.337,0.0002817078890863245
395.8192,0.0002424811601162941
396.3013,0.00022020334360096022
396.7834,0.0002129437840141457
397.2655,0.00021503328695483817
397.7476,0.00022728194514413274
398.2297,0.0002468425786879741
398.7119,0.00027960301537933123
399.194,0.0003165612713821197
399.6761,0.0003474771191409397
400.1582,0.00037265671328804063
400.6403,0.00038476431924020914
401.1224,0.00037388545331588945
401.6046,0.0003407771136333396
402.0867,0.00029870558069212066
402.5688,0.000246352217301224
403.0509,0.00019233357442189204
403.533,0.00014516234124433789
404.0151,0.00010462710912164859
404.4973,7.18369491503471e-05
404.9794,4.956034484055743e-05
405.4615,3.470151233639244e-05
405.9436,2.2170807858711828e-05
406.4257,1.1454430814362326e-05
406.9078,3.0513395518137063e-06
407.39,2.0565648916447925e-06
407.8721,4.157835923760624e-06
408.3542,5.492934866059776e-06
408.8363,5.408924173022768e-06
409.3184,5.2996074770445065e-06
409.8005,6.338055478560779e-06
410.2827,8.167331830663279e-06
410.7648,9.472503842486589e-06
411.2469,9.582906674632477e-06
411.729,9.030611282216778e-06
412.2111,9.046573604823141e-06
412.6932,9.908786315497724e-06
413.1754,1.0553694211492254e-05
413.6575,1.0593609715652514e-05
414.1396,1.0441511861607443e-05
414.6217,1.0607040953082532e-05
415.1038,1.1147422789409582e-05
415.5859,1.1663870839471442e-05
416.0681,1.1819391961973405e-05
416.5502,1.162987574718918e-05
417.0323,1.0718908129525846e-05
417.5144,8.813902872664487e-06
417.9965,6.6069614588474245e-06
418.4786,3.773028546979484e-06
418.9608,9.114282557701404e-07
419.4429,9.181632697738577e-07
419.925,1.150169713294277e-06
420.4071,1.5627754361038195e-07
420.8892,1.1839078180011628e-06
421.3713,4.707062011738343e-06
421.8535,5.5874723520428395e-06
422.3356,2.1217088175914747e-06
422.8177,2.732122192619523e-06
423.2998,7.061611270264664e-06
423.7819,1.0433559793237323e-05
424.264,1.3070388083614188e-05
424.7462,1.5140544223820839e-05
425.2283,1.6626853685706686e-05
425.7104,1.7905444454356218e-05
426.1925,1.860062978750305e-05
426.6746,1.959845920564341e-05
427.1567,2.1009723446697342e-05
427.6389,2.2875516278614095e-05
428.121,2.5107947950615132e-05
428.6031,2.7574068607431975e-05
429.0852,3.0782650613620444e-05
429.5673,3.612652298831789e-05
430.0494,4.442462755309222e-05
430.5316,5.1927879244873495e-05
431.0137,5.6939864288028514e-05
431.4958,6.136785718819743e-05
431.9779,6.585151456695718e-05
432.46,7.063351997426171e-05
432.9421,7.660629913176992e-05
433.4243,8.551537953494482e-05
433.9064,9.639308174194204e-05
434.3885,0.00010461745996551657
434.8706,0.00010877721602285925
435.3527,0.00011311390560143709
435.8348,0.0001196612701869082
436.317,0.00012837644619122877
436.7991,0.00013982480628022564
437.2812,0.00015506096927737497
437.7633,0.00017168462274044492
438.2454,0.000187162257082004
438.7275,0.00020193681220791223
439.2097,0.00021817736023078512
439.6918,0.0002364361819965718
440.1739,0.0002566188224492662
440.656,0.0002782418540178312
441.1381,0.00030101439585987445
441.6202,0.00032682593700129116
442.1024,0.00035624999612916537
442.5845,0.00038886128305036093
443.0666,0.0004236764081391804
443.5487,0.0004607564180668309
444.0308,0.0005009904898441127
444.5129,0.0005445983720920833
444.9951,0.0005918966928988939
445.4772,0.0006467819657659037
445.9593,0.0007102244400107106
446.4414,0.0007784129414022692
446.9235,0.0008479901454652928
447.4056,0.0009222644035710816
447.8878,0.001006985933939224
448.3699,0.0011040385039854466
448.852,0.0012093956517740495
449.3341,0.001316956104359837
449.8162,0.001422034444873268
450.2983,0.0015434581649450367
450.7805,0.0016760923618898034
451.2626,0.0018265149478727536
451.7447,0.0019961374150295834
452.2268,0.0021867809809699382
452.7089,0.0024016444136839197
453.191,0.0026410642214306046
453.6732,0.0029070235724803464
454.1553,0.003204676764807192
454.6374,0.0035224860260412035
455.1195,0.003897970572422813
455.6016,0.004325321514984094
456.0837,0.004808882913513331
456.5659,0.005344788802088882
457.048,0.005938202206564712
457.5301,0.006596100097171163
458.0122,0.007320785664442267
458.4943,0.008115415491615185
458.9764,0.009000446759454269
459.4586,0.009988253662154976
459.9407,0.011054912111096464
460.4228,0.012211273770310645
460.9049,0.013420400312453876
461.387,0.01463433203737442
461.8691,0.015885686971856293
462.3513,0.0170521826694202
462.8334,0.018040173827363625
463.3155,0.018843080593992517
463.7976,0.019287169670708464
464.2797,0.01931140408394862
464.7618,0.018939664282934233
465.244,0.018178947118066568
465.7261,0.017033417727595587
466.2082,0.015762779027316175
466.6903,0.014354496811901036
467.1724,0.012916607688273731
467.6545,0.01155322556621671
468.1367,0.010282024402564776
468.6188,0.009125046942934128
469.1009,0.008104777175759062
469.583,0.007221452693326247
470.0651,0.006444167103080108
470.5472,0.005785905550810388
471.0294,0.005205453048013418
471.5115,0.004706430210208693
471.9936,0.004274528163152172
472.4757,0.0038943276523213063
472.9578,0.0035616252337709402
473.4399,0.003268821833385432
473.9221,0.0030084284453125564
474.4042,0.002782774928608315
474.8863,0.002578747158813057
475.3684,0.0023970991277752914
475.8505,0.002231606402466529
476.3326,0.0020818175575421
476.8148,0.0019467497367467456
477.2969,0.0018268097562611093
477.779,0.0017231632729365173
478.2611,0.0016313222169660295
478.7432,0.0015432850619933212
479.2253,0.0014585058306412738
479.7075,0.0013800514029367775
480.1896,0.0013106283914189794
480.6717,0.0012462151829743568
