wavelength,intensity
154.6746,0.0
155.1567,7.259472308015338e-06
155.6389,1.978298113358543e-05
156.121,1.5966133780593275e-05
156.6031,1.079619350620349e-06
157.0852,7.326502425788834e-06
157.5673,5.42681147803336e-06
158.0495,2.3646886305804414e-05
158.5316,3.769497634670264e-05
159.0137,4.342394702751184e-05
159.4958,4.299393408157544e-05
159.9779,3.100387327661943e-05
160.46,1.109186013608446e-05
160.9422,3.923686300838015e-06
161.4243,1.2399063804399894e-05
161.9064,1.3531360759150109e-05
162.3885,6.9459135243016e-06
162.8706,8.647025808624218e-06
163.3527,3.0750245935012205e-05
163.8349,5.781798598426551e-05
164.317,9.031760453072704e-05
164.7991,0.00013090161580451594
165.2812,0.0001818107090218005
165.7633,0.00024078940605877288
166.2454,0.00030583684044413435
166.7276,0.000377356676624112
167.2097,0.00045371112793201365
167.6918,0.0005344410593959083
168.1739,0.00061896960664141
168.656,0.0007101759517889416
169.1381,0.0008131852998794883
169.6203,0.0009210080737450463
170.1024,0.0009971593109155139
170.5845,0.001057459748389688
171.0666,0.0011149047144838845
171.5487,0.001164770486633365
172.0309,0.0012075623121089627
172.513,0.001252356701143621
172.9951,0.0013119196327646885
173.4772,0.001376615042660007
173.9593,0.001431546864219915
174.4414,0.0014626942432376818
174.9236,0.0014855341352197622
175.4057,0.0015167251536371215
175.8878,0.0015567449074741844
176.3699,0.0015963195394354075
176.852,0.0016255865452129716
177.3341,0.0016489171379993545
177.8163,0.0016760710270722248
178.2984,0.0017105893072673743
178.7805,0.0017509819355298409
179.2626,0.0017943032523871567
179.7447,0.0018391514633479787
180.2268,0.0018904738216794007
180.709,0.0019520645307348485
181.1911,0.0020232704541670934
181.6732,0.0021018955604122165
182.1553,0.00219102321549251
182.6374,0.0022861149218503934
183.1195,0.0023719429534393047
183.6017,0.0024472815280129237
184.0838,0.0025246173324412085
184.5659,0.002619603334475635
185.048,0.002730552143998642
185.5301,0.0028549171596029196
186.0123,0.0029963054201058658
186.4944,0.003150341833257261
186.9765,0.0032964567256182514
187.4586,0.0034334374067623934
187.9407,0.0035698818081737697
188.4228,0.0037168457292979357
188.905,0.003873378800988218
189.3871,0.004039805409448252
189.8692,0.004220071041283383
190.3513,0.004409945584026481
190.8334,0.004592912494696363
191.3155,0.004766047933520359
191.7977,0.004934864526431388
192.2798,0.005108830568494287
192.7619,0.005288009094397356
193.244,0.005464753511567621
193.7261,0.005633536162723411
194.2082,0.005795200742923509
194.6904,0.0059684782522372885
195.1725,0.0061557300670648995
195.6546,0.006352553456869716
196.1367,0.006544314676321847
196.6188,0.006731721653459119
197.1009,0.006918086133828358
197.5831,0.00710481912468304
198.0652,0.007293535283808075
198.5473,0.00748111196972154
199.0294,0.00766928990958494
199.5115,0.007853613035817702
199.9937,0.008026677196955698
200.4758,0.008186465282973334
200.9579,0.008333903418906401
201.44,0.008468482478426322
201.9221,0.008590507937330245
202.4042,0.008696042552010523
202.8864,0.008785925168703761
203.3685,0.00885816292149525
203.8506,0.00890844035864755
204.3327,0.008936321086164737
204.8148,0.008942551822662057
205.2969,0.008928242948418017
205.7791,0.008894136333225689
206.2612,0.00883347756779264
206.7433,0.008742028781536263
207.2254,0.00862697108010055
207.7075,0.008506865754778683
208.1896,0.008383356556288626
208.6718,0.008249252681342042
209.1539,0.008099016775012902
209.636,0.007933555567048289
210.1181,0.007754648575187127
210.6002,0.00755975016778654
211.0823,0.0073532921683162195
211.5645,0.007148783395361013
212.0466,0.0069492834557145465
212.5287,0.006736323185704999
213.0108,0.006508486729256716
213.4929,0.006259373641096185
213.975,0.006016229453035421
214.4572,0.0057793741873381
214.9393,0.005550223700079877
215.4214,0.0053265863236367905
215.9035,0.005108534790341496
216.3856,0.004892636134092746
216.8678,0.0046800400106286845
217.3499,0.004465235248663044
217.832,0.004262311555677467
218.3141,0.00407488227395818
218.7962,0.003899720512346457
219.2783,0.00372874764821336
219.7605,0.0035613653369022586
220.2426,0.003401568523004703
220.7247,0.0032530747984837243
221.2068,0.003117868786256329
221.6889,0.002989274627949357
222.171,0.0028682392985339583
222.6532,0.0027535612598746963
223.1353,0.0026470636691100858
223.6174,0.0025524452077966683
224.0995,0.0024580977956429394
224.5816,0.0023569402127417514
225.0637,0.0022411299741041824
225.5459,0.002136314924634957
226.028,0.0020454489668042444
226.5101,0.001965566076086433
226.9922,0.0018908108148206952
227.4743,0.001822662073770987
227.9564,0.0017554753390411765
228.4386,0.001684740721124526
228.9207,0.0016070630747327696
229.4028,0.0015379848144717494
229.8849,0.0014788810663108347
230.367,0.0014272425647734786
230.8492,0.0013754838124461358
231.3313,0.0013240455672646858
231.8134,0.001273785585872223
232.2955,0.001223707920193612
232.7776,0.0011733664785885773
233.2597,0.0011248898939927793
233.7419,0.0010794908568326613
234.224,0.0010370277815006572
234.7061,0.0009956881782670418
235.1882,0.0009526810650867894
235.6703,0.0009131064331255663
236.1524,0.0008801058342717872
236.6346,0.0008585693056908582
237.1167,0.0008336090237708185
237.5988,0.0008026817812798827
238.0809,0.0007686934773486687
238.563,0.000738383005038635
239.0451,0.0007128777155059115
239.5273,0.0006907253865085157
240.0094,0.0006710047418328366
240.4915,0.000653997498047352
240.9736,0.0006359530911982279
241.4557,0.0006145644516936942
241.9378,0.0005938643449382809
242.42,0.0005827450259222087
242.9021,0.0005878682914343236
243.3842,0.0005921245875412084
243.8663,0.0005876811268982951
244.3484,0.0005694272509311289
244.8306,0.000556029955256348
245.3127,0.0005481360727523511
245.7948,0.0005446648009559068
246.2769,0.0005447079554732812
246.759,0.0005517940242026062
247.2411,0.0005575558795954191
247.7233,0.0005584984906266088
248.2054,0.0005530678097884783
248.6875,0.000547998366202527
249.1696,0.0005437231596891523
249.6517,0.0005406882818886292
250.1338,0.0005393354605012735
250.616,0.0005409442996995696
251.0981,0.0005403949281469266
251.5802,0.0005346238599919775
252.0623,0.0005209923662060522
252.5444,0.0005166415180667178
253.0265,0.0005263944389933391
253.5087,0.0005413937855153685
253.9908,0.0005479813953249079
254.4729,0.0005401301824560677
254.955,0.0005369052308262101
255.4371,0.0005446444359027638
255.9192,0.0005649430601819297
256.4014,0.0005816598595190179
256.8835,0.0005920494307974664
257.3656,0.0006021218891055454
257.8477,0.0006193652705310452
258.3298,0.0006449452319252932
258.812,0.0006749608958469711
259.2941,0.0007078897321325321
259.7762,0.0007435790028834034
260.2583,0.0007874084763048583
260.7404,0.0008421157973979757
261.2225,0.0009020157221603379
261.7047,0.0009623898617316008
262.1868,0.0010225191357829304
262.6689,0.0010861739884390855
263.151,0.0011606373506097736
263.6331,0.0012442998982144806
264.1152,0.0013032906688186733
264.5974,0.0013390803101886064
265.0795,0.0013464893104749131
265.5616,0.0013203032463085526
266.0437,0.0012590655315075831
266.5258,0.001166327928316586
267.0079,0.0010321542303306527
267.4901,0.0008624905481853189
267.9722,0.0007219518013277663
268.4543,0.0006153038970756719
268.9364,0.0005251482916938751
269.4185,0.0004352525346925386
269.9006,0.0003414367958905072
270.3828,0.00026711317677495755
270.8649,0.00021775691885982592
271.347,0.00018988744061008837
271.8291,0.00016805532782925532
272.3112,0.00015412204335103964
272.7933,0.00014025509076020392
273.2755,0.00011872510808921369
273.7576,8.723084433291107e-05
274.2397,6.404978922246384e-05
274.7218,5.3302714284912365e-05
275.2039,5.1316006374370203e-05
275.686,4.733283957188813e-05
276.1682,4.106435014509936e-05
276.6503,3.361443549726402e-05
277.1324,2.5508698254713927e-05
277.6145,1.6893340103727058e-05
278.0966,7.308746038977019e-06
278.5787,4.0195717593862565e-06
279.0609,1.5150498855750017e-05
279.543,2.1728842566109364e-05
280.0251,2.3163012643126985e-05
280.5072,2.2684462987199792e-05
280.9893,2.1484093417908046e-05
281.4715,1.9523433380100205e-05
281.9536,1.7746558249263486e-05
282.4357,1.5963762706548773e-05
282.9178,1.4859875000933027e-05
283.3999,1.6729086252484493e-05
283.882,2.191351480753886e-05
284.3642,2.5266315331734938e-05
284.8463,2.2879788090951943e-05
285.3284,1.5573999833502837e-05
285.8105,1.296225450024709e-05
286.2926,1.6366845294114658e-05
286.7747,2.0783584078010977e-05
287.2569,1.7609239605213614e-05
287.739,7.275007934270133e-06
288.2211,4.140894042098084e-09
288.7032,2.7168096121848655e-06
289.1853,1.2326258739413706e-05
289.6674,1.3018782069185416e-05
290.1496,3.358129379768489e-06
290.6317,6.019594535626192e-06
291.1138,2.628013083171033e-07
291.5959,1.956161300592113e-05
292.078,3.3274096668667246e-05
292.5602,3.2700548888650184e-05
293.0423,2.3412494241772958e-05
293.5244,1.9881237666178175e-05
294.0065,2.2294103709026095e-05
294.4886,2.5679464074140067e-05
294.9707,2.43527245012739e-05
295.4529,1.9964991371639803e-05
295.935,1.905494987901226e-05
296.4171,2.5914442845654932e-05
296.8992,3.470737456240432e-05
297.3813,3.311694634191384e-05
297.8634,2.2041067923724453e-05
298.3456,1.1481918787283184e-05
298.8277,9.528953830270085e-06
299.3098,1.3732310496627467e-05
299.7919,1.9556284150348718e-05
300.274,2.7588624771607036e-05
300.7561,3.40749329882266e-05
301.2383,3.335488774377879e-05
301.7204,2.6332915594810304e-05
302.2025,1.7089256763784793e-05
302.6846,4.611472331342892e-06
303.1667,7.494897171170473e-06
303.6488,1.3106676668786123e-05
304.131,9.81395305136187e-06
304.6131,4.413776153546233e-06
305.0952,4.733696591956067e-06
305.5773,8.528942442150118e-06
306.0594,9.738190204847771e-06
306.5415,9.93795198089179e-07
307.0237,9.918716703316021e-06
307.5058,1.4297275861391412e-05
307.9879,1.0643790176361276e-05
308.47,4.6304118307658725e-06
308.9521,2.4859912270742307e-08
309.4343,4.024900614958672e-06
309.9164,8.652946220502216e-06
310.3985,1.6729086252484493e-05
310.8806,2.4148816982268627e-05
311.3627,2.616392929312308e-05
311.8448,2.2490616774211592e-05
312.327,2.1146712370839188e-05
312.8091,3.0301293489652825e-05
313.2912,4.326206425031379e-05
313.7733,5.209909115593992e-05
314.2554,5.091825749119891e-05
314.7375,4.7526094228570746e-05
315.2197,4.5038939381150495e-05
315.7018,4.379654991887372e-05
316.1839,4.507682322881864e-05
316.666,5.137225271162227e-05
317.1481,5.944127467264885e-05
317.6302,6.614835946062713e-05
318.1124,7.128840189747413e-05
318.5945,7.520319545843971e-05
319.0766,7.823521245387846e-05
319.5587,7.988361804113816e-05
320.0408,7.919760667955002e-05
320.5229,7.155683269318745e-05
321.0051,6.533686058110077e-05
321.4872,6.586722475081034e-05
321.9693,7.856372015636359e-05
322.4514,8.945252616614591e-05
322.9335,9.59974663405286e-05
323.4156,9.869709657574067e-05
323.8978,9.864705673087505e-05
324.3799,9.180473829238296e-05
324.862,8.618112281983351e-05
325.3441,8.537350299804866e-05
325.8262,9.1941184148441e-05
326.3083,9.657515501468471e-05
326.7905,9.59050962780586e-05
327.2726,9.265531867865517e-05
327.7547,9.10447339043753e-05
328.2368,9.210158318605293e-05
328.7189,9.539252728573825e-05
329.201,0.00010137985290977717
329.6832,0.00011023462650457076
330.1653,0.00011938862091590099
330.6474,0.0001327634180557811
331.1295,0.00014360698455465293
331.6116,0.0001456321921132797
332.0938,0.00012761450227435038
332.5759,0.00011891125437258497
333.058,0.00012674826019244678
333.5401,0.00014847888712511725
334.0222,0.00016326537035358068
334.5043,0.00016699493890738856
334.9865,0.000169621448904173
335.4686,0.00017732947605412922
335.9507,0.00019212066264010424
336.4328,0.00020650881512673518
336.9149,0.0002196711368788234
337.397,0.00023238537897354413
337.8792,0.00024617271390423506
338.3613,0.0002613930697410877
338.8434,0.00027759744555052094
339.3255,0.0002959888826028459
339.8076,0.0003176525957894751
340.2898,0.00033285074402075753
340.7719,0.000339514334873809
341.254,0.00034349899996234375
341.7361,0.00035356656096002413
342.2182,0.00036991179505369633
342.7003,0.00038959505531039153
343.1825,0.00041243014695851684
343.6646,0.0004379086709928239
344.1467,0.0004604992850267897
344.6288,0.0004791736508531369
345.1109,0.0005011577742092158
345.593,0.0005373522922309205
346.0752,0.0005856014670666218
346.5573,0.0006296583502481734
347.0394,0.000663288811102732
347.5215,0.0006924806601365543
348.0036,0.0007286111737055239
348.4857,0.0007715387662020749
348.9679,0.0008247148292517266
349.45,0.0008892545919551663
349.9321,0.0009664880862355186
350.4142,0.0010600354427300585
350.8963,0.0011720189909056162
351.3784,0.001298055395514272
351.8606,0.0014334602094509205
352.3427,0.0015766454434526266
352.8248,0.0017257161778126565
353.3069,0.0018987982795927063
353.789,0.00206766433048994
354.2711,0.002204684771975932
354.7533,0.0023098571796395955
355.2354,0.002361803096502967
355.7175,0.0023498032313795693
356.1996,0.0022702064211701945
356.6817,0.0021160846687484857
357.1638,0.001821829531003213
357.646,0.0014968881372291966
358.1281,0.0012086629947431196
358.6102,0.0009597089479499916
359.0923,0.0007489321025667035
359.5744,0.0005840862101363398
360.0565,0.0004565262086232578
360.5387,0.00035891820599667117
361.0208,0.0003008424081372597
361.5029,0.00025705002820545814
361.985,0.0002198300327815605
362.4671,0.0001885148360282509
362.9492,0.00016228135038100016
363.4314,0.0001439263279832237
363.9135,0.00012827743324237645
364.3956,0.00011209914409625497
364.8777,9.432976244100483e-05
365.3598,7.752641162805888e-05
365.8419,6.204887426294334e-05
366.3241,4.854296497139981e-05
366.8062,3.77754716436614e-05
367.2883,3.147857296773816e-05
367.7704,2.6270472462816155e-05
368.2526,2.1304158475745383e-05
368.7347,1.6275100729705487e-05
369.2168,1.2293112191012401e-05
369.6989,8.627198974742865e-06
370.181,6.158692697414988e-06
370.6631,5.98112398047465e-06
371.1453,9.06164859297113e-06
371.6274,1.3254948802133617e-05
372.1095,2.0693614182518557e-05
372.5916,2.97182711111021e-05
373.0737,2.8391240608905314e-05
373.5558,9.787614249296937e-06
374.038,8.75623098169241e-06
374.5201,1.6985972002594597e-05
375.0022,1.1188928707243865e-05
375.4843,7.559119820903542e-06
375.9664,7.98173346419799e-06
376.4485,9.703268987529721e-06
376.9307,6.023444500434652e-06
377.4128,4.697296483874062e-06
377.8949,1.3453527465566472e-05
378.377,1.596050914686807e-05
378.8591,1.2501757009284505e-05
379.3412,8.567417846123837e-06
379.8234,4.120790922329091e-06
380.3055,3.663867013310884e-07
380.7876,7.019882306610243e-07
381.2697,7.005093398970691e-07
381.7518,1.1610068308596533e-06
382.2339,4.681925572108617e-07
382.7161,3.523862121775008e-06
383.1982,8.361139253074061e-06
383.6803,1.463791531696315e-05
384.1624,1.6306768387342838e-05
384.6445,4.783712192710814e-06
385.1266,1.4595299018850355e-05
385.6088,2.7960931884816122e-05
386.0909,3.1961268366626604e-05
386.573,3.373103997297416e-05
387.0551,4.0613918808976025e-05
387.5372,5.1774753440526924e-05
388.0193,6.499327304164548e-05
388.5015,8.125389518833073e-05
388.9836,9.760679042104243e-05
389.4657,0.00010996120142201524
389.9478,0.00011783874339527595
390.4299,0.00012641713412598612
390.912,0.0001402465083449508
391.3942,0.0001568163883700789
391.8763,0.0001725735573101364
392.3584,0.0001839572341112934
392.8405,0.0001965474918229507
393.3226,0.0002143961517207932
393.8047,0.00023636674686299856
394.2869,0.0002572270102149151
394.769,0.0002689489408511327
395.2511,0.0002830316660288406
395.7332,0.00030716832701391174
396.2154,0.0003466173744807531
396.6975,0.0003875080252690093
397.1796,0.0004248670849129405
397.6617,0.0004626511438206772
398.1438,0.0005071921334083708
398.6259,0.0005551988671352269
399.1081,0.0006143559523400876
399.5902,0.0006886035419239033
400.0723,0.0007796188434776648
400.5544,0.0008743881031607841
401.0365,0.0009837857744693997
401.5186,0.0010890813422163562
402.0008,0.0011763257147631408
402.4829,0.0012584070614559597
402.965,0.001299581319853343
403.4471,0.0012962928486529679
403.9292,0.0012488432445942378
404.4113,0.0011542698773270655
404.8935,0.0009972010107862353
405.3756,0.000827591150567065
405.8577,0.0006644408912519639
406.3398,0.0005063915928669642
406.8219,0.000376195383712744
407.304,0.0002756838093901847
407.7862,0.00019983397500623328
408.2683,0.00014323764976943828
408.7504,0.00010626184103036943
409.2325,7.797948557226864e-05
409.7146,5.626810846364048e-05
410.1967,4.035170420329351e-05
410.6789,2.6908834448871868e-05
411.161,1.602768957812905e-05
411.6431,6.600837396437997e-06
412.1252,2.3625595127625636e-06
412.6073,1.0586084343633963e-05
413.0894,1.7463037918935656e-05
413.5716,2.3221610659134848e-05
414.0537,2.672711998897028e-05
414.5358,2.54879840863742e-05
415.0179,2.0595658276900775e-05
415.5,1.536772608927524e-05
415.9821,1.1779345539614368e-05
416.4643,8.913677086598603e-06
416.9464,5.153352453722604e-06
417.4285,3.0482606467078167e-07
417.9106,2.187357021044554e-06
418.3927,2.0932462314130584e-06
418.8748,9.357897081513327e-06
419.357,1.5064674703218849e-05
419.8391,1.8310044723263476e-05
420.3212,1.914787755603259e-05
420.8033,1.7005798836475952e-05
421.2854,1.2217349344498303e-05
421.7675,6.383314384759984e-06
422.2497,2.037901775085896e-06
422.7318,9.982939353049091e-06
423.2139,1.574920232522085e-05
423.696,1.8871756528346715e-05
424.1781,2.0473724945618217e-05
424.6602,1.8102878795755323e-05
425.1424,1.5079172681527784e-05
425.6245,1.6186318795646406e-05
426.1066,2.364659052765162e-05
426.5887,3.233002129318002e-05
427.0709,4.1966696556932174e-05
427.553,5.2528793777257e-05
428.0351,5.98813537734245e-05
428.5172,6.149252040636558e-05
428.9993,6.382814956075763e-05
429.4814,7.262638588896854e-05
429.9636,9.079734699690977e-05
430.4457,0.00010331210854727272
430.9278,0.00010563973714507287
431.4099,0.00010392267223578825
431.892,0.00011394465430500576
432.3741,0.0001380381122844807
432.8563,0.00016201291958528683
433.3384,0.0001776618143261341
433.8205,0.00018642659378132436
434.3026,0.00019880141832366195
434.7847,0.00021527863735698943
435.2668,0.00023519066504399094
435.749,0.0002567975985229286
436.2311,0.0002804356066353271
436.7132,0.000307121875297457
437.1953,0.00033669925418256484
437.6774,0.0003700804855772308
438.1595,0.00041171426685231903
438.6417,0.00045986151944586175
439.1238,0.0005068275019806676
439.6059,0.0005408337465539363
440.088,0.0005747047089884694
440.5701,0.0006214851755867869
441.0522,0.0006830021825451458
441.5344,0.0007559915027740555
442.0165,0.000841450054113087
442.4986,0.0009373398766012884
442.9807,0.001039919134164744
443.4628,0.001136773872266149
443.9449,0.0012495167459946096
444.4271,0.0013858399268515634
444.9092,0.0015451101586607071
445.3913,0.0017246174347073703
445.8734,0.001914963282966063
446.3555,0.0021278600334050926
446.8376,0.002370141131118368
447.3198,0.0026541613750126355
447.8019,0.002945162468194989
448.284,0.00323587651110447
448.7661,0.003533061307209027
449.2482,0.003845742454108746
449.7303,0.004173971349318702
450.2125,0.004512554904287433
450.6946,0.004860784221212675
451.1767,0.00522078987255896
451.6588,0.005596559044802355
452.1409,0.0059877911109678895
452.623,0.006402282977116026
453.1052,0.0068347300317852305
453.5873,0.007286528735762452
454.0694,0.007788163634073875
454.5515,0.00833964927318603
455.0337,0.008943977376382067
455.5158,0.009581418086224168
455.9979,0.010260282283923545
456.48,0.011019326605140179
456.9621,0.011885350490045805
457.4442,0.012847516821075051
457.9264,0.013884190153674578
458.4085,0.014991103524328708
458.8906,0.016195420034872454
459.3727,0.017518421165840233
459.8548,0.01894517739374937
460.3369,0.0204327087588238
460.8191,0.02200770317832519
461.3012,0.023598616281033352
461.7833,0.025246755183073313
462.2654,0.026870426928408627
462.7475,0.028293527144396376
463.2296,0.02959360789293394
463.7118,0.030564443918015487
464.1939,0.031128250414279152
464.676,0.03128628807549093
465.1581,0.03095375585059897
465.6402,0.029980805739048294
466.1223,0.02858526137949188
466.6045,0.026927836982983146
