wavelength,intensity
94.93475,0.0
95.41687,6.219802403310486e-06
95.89898,1.3934889438356267e-05
96.3811,2.42195467513631e-05
96.86321,3.467615299640724e-05
97.34533,4.444379009833534e-05
97.82745,4.903943587409282e-05
98.30956,5.2347835733615e-05
98.79168,5.936786350489055e-05
99.2738,7.487454229128928e-05
99.75591,9.207258722943505e-05
100.238,9.806156145301411e-05
100.7201,9.344397960572832e-05
101.2023,8.461732917956076e-05
101.6844,7.027596782693695e-05
102.1665,5.24692987291464e-05
102.6486,2.9513621722303763e-05
103.1307,9.72842467698349e-06
103.6128,1.9437909854544e-06
104.095,5.631310553344213e-06
104.5771,6.064577058961314e-06
105.0592,4.732809257497694e-06
105.5413,2.0405637784610156e-06
106.0234,1.80513891530588e-06
106.5055,5.176583160772142e-06
106.9877,9.236409841871042e-06
107.4698,1.9662085450248723e-05
107.9519,4.214116202767929e-05
108.434,6.415040228263456e-05
108.9161,8.281070652466874e-05
109.3982,9.725166268480613e-05
109.8804,0.00010579126283810107
110.3625,0.00010487294440601755
110.8446,9.156220020709431e-05
111.3267,8.675570824779641e-05
111.8088,9.343525172580989e-05
112.2909,0.00010437351572179662
112.7731,0.00011676371103043495
113.2552,0.0001300035654491319
113.7373,0.00014489376498395923
114.2194,0.00016225395453570062
114.7015,0.00018041958193924725
115.1836,0.0002058630489892153
115.6658,0.00024130391457996398
116.1479,0.00028237508701786624
116.63,0.0003252510880464551
117.1121,0.00036872756721343145
117.5942,0.0004130979752369416
118.0763,0.0004581296656289376
118.5584,0.0004993961971123473
119.0406,0.0005491295964163983
119.5227,0.0006097859374383571
120.0048,0.0006813046099010124
120.4869,0.0007636841591577109
120.969,0.0008549486901713652
121.4511,0.0009608392083994275
121.9333,0.0010838116422744988
122.4154,0.0012205760659495509
122.8975,0.0013794840907420801
123.3796,0.0015634338576672208
123.8617,0.0017718071418974185
124.3438,0.0020138516170884607
124.826,0.002290538987204599
125.3081,0.00260435960731589
125.7902,0.002974002292738768
126.2723,0.0034130781722060163
126.7544,0.0039006543954977282
127.2365,0.004394654338409401
127.7187,0.004952305739801706
128.2008,0.005410810364849583
128.6829,0.005808908363217611
129.165,0.006083889917691916
129.6471,0.00614212912085869
130.1292,0.0059120816014977375
130.6114,0.005408434441982901
131.0935,0.004839868826752607
131.5756,0.004083379349940984
132.0577,0.0033737421022958965
132.5398,0.002757549900997416
133.0219,0.002236665663525909
133.5041,0.0018017272840222115
133.9862,0.0014450464700426285
134.4683,0.0011726299424999057
134.9504,0.0009526524570359458
135.4325,0.0007925516219878986
135.9146,0.0006662567751572139
136.3968,0.0005655258886075933
136.8789,0.0004870908561918047
137.361,0.0004247709327691725
137.8431,0.00037421415497126167
138.3252,0.00033719630694391907
138.8073,0.00030599355437689184
139.2895,0.00028168951205027404
139.7716,0.0002623109517791753
140.2537,0.0002458048822538953
140.7358,0.00023193550525197116
141.2179,0.00022051429856716494
141.7,0.0002123669681279814
142.1821,0.00020718299536221166
142.6643,0.00020203791015030066
143.1464,0.00019586293510801564
143.6285,0.00018880959592838478
144.1106,0.00018114865084176629
144.5927,0.0001719448105384575
145.0748,0.0001634145201237422
145.557,0.00015777878259575048
146.0391,0.00015504424084086468
146.5212,0.00015249565141646308
147.0033,0.0001482017284494855
147.4854,0.00014215107720781626
147.9675,0.00013429244564104546
148.4497,0.00012189798336889146
148.9318,0.00010922650788577101
149.4139,9.879518824837941e-05
149.896,9.112803666937449e-05
150.3781,8.451613426072881e-05
150.8602,7.660392320890324e-05
151.3424,6.685565715157186e-05
151.8245,5.663695836663743e-05
152.3066,4.595837789115688e-05
152.7887,3.854737989011335e-05
153.2708,3.0099529150049743e-05
153.7529,2.063065222655148e-05
154.2351,1.1104733758964134e-05
154.7172,4.036368079407046e-06
155.1993,3.7521107281083283e-06
155.6814,8.973909155680084e-07
156.1635,6.119994247621131e-06
156.6456,1.5504972000992457e-05
157.1278,2.5856067875467204e-05
157.6099,3.669940647969671e-05
158.092,4.701077110525393e-05
158.5741,5.2085708406731666e-05
159.0562,4.8437614611962246e-05
159.5383,4.4312314285008634e-05
160.0205,4.2694359301019894e-05
160.5026,4.2258135013874884e-05
160.9847,3.9512023969274994e-05
161.4668,3.198302018291219e-05
161.9489,2.0742965494635066e-05
162.431,1.1906680458802e-05
162.9131,8.153604815080468e-06
163.3953,3.800569856944289e-06
163.8774,5.044370326474549e-06
164.3595,1.786094196441661e-05
164.8416,3.055195820090997e-05
165.3237,3.967280121501672e-05
165.8058,4.7354959898659156e-05
166.288,5.830611691281427e-05
166.7701,7.473862980567071e-05
167.2522,9.321647286918806e-05
167.7343,0.00010960059451671901
168.2164,0.0001232964806611536
168.6985,0.00013733866968546253
169.1807,0.00015355051268104816
169.6628,0.00017118087860448655
170.1449,0.000189633507792684
170.627,0.00020886204550562938
171.1091,0.0002286137226432407
171.5912,0.0002484551514793465
172.0734,0.0002688378543350599
172.5555,0.0002882052623151518
173.0376,0.0003042859446708522
173.5197,0.0003195372844814152
174.0018,0.0003374741929428774
174.4839,0.00036002548302898853
174.9661,0.0003869064803897428
175.4482,0.00041641248461240664
175.9303,0.0004520186950393877
176.4124,0.00048651772541049486
176.8945,0.00051577406377927
177.3766,0.0005426433269903562
177.8588,0.0005717954156823279
178.3409,0.0006068126396794807
178.823,0.0006478065218918831
179.3051,0.0006905280394459158
179.7872,0.0007357520341254479
180.2693,0.0007819569455313672
180.7515,0.0008278990507752983
181.2336,0.0008743245835902667
181.7157,0.0009228079565371123
182.1978,0.0009750554701398872
182.6799,0.0010316223145378466
183.162,0.0010862345987162968
183.6441,0.00113559803288825
184.1263,0.0011862352526460758
184.6084,0.0012395621140654292
185.0905,0.0012964164936184789
185.5726,0.0013586773098987746
186.0547,0.0014278695174809522
186.5368,0.001505028824781998
187.019,0.001586657776365712
187.5011,0.0016746643837587056
187.9832,0.0017648825389465844
188.4653,0.0018528498708799451
188.9474,0.0019380140987128385
189.4296,0.0020265104371456994
189.9117,0.002125415257263499
190.3938,0.0022343789589872815
190.8759,0.00234410150138175
191.358,0.0024512435006136704
191.8401,0.0025592636215418284
192.3223,0.002672185901690834
192.8044,0.002790664447172352
193.2865,0.002914128066733944
193.7686,0.003043130980750428
194.2507,0.0031769351984864817
194.7328,0.003315126630528196
195.215,0.0034614820244691603
195.6971,0.0036119526137916623
196.1792,0.003757769303588773
196.6613,0.00389487702387395
197.1434,0.0040348639747677705
197.6255,0.004187765763529771
198.1077,0.004350740495482068
198.5898,0.004514247628109389
199.0719,0.004677000768888202
199.554,0.0048379729372814385
200.0361,0.00499041263328998
200.5182,0.005131047871708853
201.0004,0.0052674694836559975
201.4825,0.005405762740963428
201.9646,0.005543571116053166
202.4467,0.005673587433904624
202.9288,0.005791297441071103
203.4109,0.00589708419450458
203.893,0.005993090873607244
204.3752,0.006082798932702113
204.8573,0.006156336169837013
205.3394,0.006211040581636824
205.8215,0.006246994598078554
206.3036,0.006265269808863299
206.7857,0.0062661425968551406
207.2679,0.006249525683254897
207.75,0.006217736805063125
208.2321,0.0061685358064340985
208.7142,0.006104841678318311
209.1963,0.006023318431058053
209.6784,0.0059269432414699435
210.1606,0.005822679018200014
210.6427,0.00571707652000926
211.1248,0.00561218679867851
211.6069,0.005492469379130793
212.089,0.005353919134247989
212.5711,0.005206393719515737
213.0533,0.005049873739645333
213.5354,0.004886856338057879
214.0175,0.004720050551703611
214.4996,0.004551762480409865
214.9817,0.004381021389976823
215.4638,0.00421414335617212
215.946,0.004053857296116915
216.4281,0.0038939567174247737
216.9102,0.003728410655072065
217.3923,0.0035594175650337967
217.8744,0.003393557299004025
218.3565,0.0032378475573193806
218.8387,0.003093716318110961
219.3208,0.0029541967936749934
219.8029,0.0028165115786685474
220.285,0.002684686165262888
220.7671,0.002561078535682643
221.2492,0.0024455572868468172
221.7314,0.002335802257343764
222.2135,0.00222941667437144
222.6956,0.0021270919799722715
223.1777,0.002032343570224513
223.6598,0.0019481820788178029
224.1419,0.0018690910007614794
224.624,0.001790658877638997
225.1062,0.0017126636333946533
225.5883,0.0016398648718772958
226.0704,0.0015781970665492352
226.5525,0.0015265440185453485
227.0346,0.0014713668465832894
227.5167,0.0014080514114795174
227.9989,0.001343334181884403
228.481,0.001283684456346369
228.9631,0.001229622998367215
229.4452,0.0011794018075521676
229.9273,0.0011329947002614714
230.4094,0.0010895487686742094
230.8916,0.001047053691115838
231.3737,0.0010047739012621212
231.8558,0.0009642246560433406
232.3379,0.0009272780857019985
232.82,0.000894049592205905
233.3021,0.0008619111139351791
233.7843,0.000828915363903577
234.2664,0.0007962347873134735
234.7485,0.0007655364092292876
235.2306,0.0007376804107052018
235.7127,0.0007113222133515612
236.1948,0.0006840359514332613
236.677,0.0006549672624827323
237.1591,0.0006284354772951586
237.6412,0.0006073770425808721
238.1233,0.0005893408787294487
238.6054,0.0005724766751981827
239.0875,0.0005570855438442596
239.5697,0.0005420440125692911
240.0518,0.0005249242761093023
240.5339,0.0005043536329060121
241.016,0.0004852080585405136
241.4981,0.0004699102670134958
241.9802,0.00045672433149740606
242.4624,0.0004439974339768036
242.9445,0.0004310381324092623
243.4266,0.0004190990715159629
243.9087,0.0004105150561515275
244.3908,0.0004060943849728458
244.8729,0.00040296088212924444
245.355,0.0004021154414944797
245.8372,0.00040111677807892494
246.3193,0.00039741979361014585
246.8014,0.0003900432804324244
247.2835,0.0003813182613190847
247.7656,0.00037538742447340676
248.2477,0.0003738234853684687
248.7299,0.0003713618838139207
249.212,0.00036697481497292487
249.6941,0.00036125034399909584
250.1762,0.00035421785475482566
250.6583,0.0003460894832103538
251.1404,0.0003381875031733214
251.6226,0.00033278358783360744
252.1047,0.00033144351884857695
252.5868,0.0003292539362181532
253.0689,0.00032378538607882103
253.551,0.00031892095069450916
254.0331,0.0003175690990715888
254.5153,0.00032024429124302933
254.9974,0.0003249779054050084
255.4795,0.00032874325826648187
255.9616,0.0003307513494828242
256.4437,0.00033360250541106446
256.9258,0.0003355937712144529
257.408,0.0003394560035430209
257.8901,0.00034724141789492047
258.3722,0.0003591802848353327
258.8543,0.0003737925983712018
259.3364,0.0003888439727551894
259.8185,0.00040273565433912725
260.3007,0.00042165895869603667
260.7828,0.000444660074015499
261.2649,0.0004722861413919562
261.747,0.0005048370604770493
262.2291,0.0005424193114057834
262.7112,0.0005847286790747793
263.1934,0.0006320842159832776
263.6755,0.0006861485832557377
264.1576,0.0007395476921255268
264.6397,0.000805026186802415
265.1218,0.0008595928920524022
265.6039,0.0008940049830418775
266.0861,0.000905875384613152
266.5682,0.0008939831633420814
267.0503,0.0008556284950405669
267.5324,0.0007877483787394592
268.0145,0.0007099097514514296
268.4966,0.000610659695194635
268.9788,0.0005139237532365642
269.4609,0.00042954357994967564
269.943,0.00035832514655621426
270.4251,0.0002981526210110667
270.9072,0.00024770295369504365
271.3893,0.00020749138045266262
271.8715,0.00017340702135412413
272.3536,0.00014578580279984396
272.8357,0.0001224870667751633
273.3178,0.00010358427293606225
273.7999,8.84362130378672e-05
274.282,7.590229863990548e-05
274.7642,6.532182923235237e-05
275.2463,5.664098288904426e-05
275.7284,4.9766516759519315e-05
276.2105,4.556099266964886e-05
276.6926,4.170152901854391e-05
277.1747,3.7674519165938286e-05
277.6568,3.336587517483165e-05
278.1389,2.8403963918297505e-05
278.6211,2.2348192320409442e-05
279.1032,1.585840749828904e-05
279.5853,1.1836944698253789e-05
280.0674,1.2181429269811813e-05
280.5495,1.2195340540637345e-05
281.0316,1.0067061568996167e-05
281.5138,6.896266434032297e-06
281.9959,4.87331357771779e-06
282.478,5.122649711698459e-06
282.9601,6.463368438900641e-06
283.4422,5.753054780561875e-06
283.9243,1.6907164095753404e-06
284.4065,1.644254995476263e-06
284.8886,2.762863725221083e-06
285.3707,2.833632284892972e-06
285.8528,3.831350180123265e-06
286.3349,6.537836649893505e-06
286.817,9.51800518979464e-06
287.2992,9.963776807805973e-06
287.7813,6.667649317213533e-06
288.2634,5.105669136434947e-06
288.7455,7.930646273742149e-06
289.2276,1.2210948899224793e-05
289.7097,1.4063698399485676e-05
290.1919,1.2546114034558807e-05
290.674,1.0059109500626046e-05
291.1561,9.720618073278678e-06
291.6382,1.1925028401919399e-05
292.1203,1.3100756256908127e-05
292.6024,1.1835800376220042e-05
293.0846,9.989708308808045e-06
293.5667,9.781543523931456e-06
294.0488,1.1461830117004277e-05
294.5309,1.276944108638257e-05
295.013,1.1079093187292676e-05
295.4951,6.398408768196681e-06
295.9773,4.035888046011532e-06
296.4594,6.3939333053274e-06
296.9415,9.529991478215943e-06
297.4236,1.0307112208508068e-05
297.9057,8.71439049512792e-06
298.3878,6.5959546325058555e-06
298.87,5.004823332799734e-06
299.3521,4.0043319112842526e-06
299.8342,3.5136117116930368e-06
300.3163,3.846517295892615e-06
300.7984,4.378966459138251e-06
301.2805,4.984143106215246e-06
301.7627,5.565575071091949e-06
302.2448,5.687872064037777e-06
302.7269,4.974673356503755e-06
303.209,3.755330346033791e-06
303.6911,3.021082901429836e-06
304.1732,2.763974105499594e-06
304.6554,2.9231948793225336e-06
305.1375,4.178089453993545e-06
305.6196,5.880797000812365e-06
306.1017,6.094581570591985e-06
306.5838,3.695103125774488e-06
307.0659,1.9717735867255247e-07
307.5481,1.1976687753392114e-06
308.0302,1.0557825407986976e-07
308.5123,6.953307978121376e-07
308.9944,1.619210828932563e-06
309.4765,5.148101179305019e-06
309.9586,6.604832825911764e-06
310.4408,4.841607129503027e-06
310.9229,2.2809877772805368e-06
311.405,2.334256937715985e-06
311.8871,5.076071925867136e-06
312.3692,7.851702599880002e-06
312.8513,1.0231092374418593e-05
313.3335,1.2236477947986182e-05
313.8156,1.3824573885009564e-05
314.2977,1.5055757719235523e-05
314.7798,1.6683657637509095e-05
315.2619,1.9690756535780744e-05
315.744,2.368040136469116e-05
316.2262,2.5882925501505068e-05
316.7083,2.484858445237263e-05
317.1904,2.3360369403371258e-05
317.6725,2.336044698452609e-05
318.1546,2.4727470572037966e-05
318.6367,2.6586358681174808e-05
319.1188,2.8513833380003932e-05
319.601,3.046543096916314e-05
320.0831,3.228100454979371e-05
320.5652,3.4720117267085216e-05
321.0473,3.645654352332221e-05
321.5294,3.6026899087871255e-05
322.0115,3.408035397142038e-05
322.4937,3.311222843793572e-05
322.9758,3.462275291777302e-05
323.4579,3.7451744879842694e-05
323.94,3.845602808030051e-05
324.4221,3.658498397396618e-05
324.9042,3.537320512609218e-05
325.3864,3.7090963416948106e-05
325.8685,4.016662950962333e-05
326.3506,4.1331738444044636e-05
326.8327,3.9282335262755133e-05
327.3148,3.60879360614341e-05
327.7969,3.5047495194003124e-05
328.2791,3.6413592656479216e-05
328.7612,3.782667035702731e-05
329.2433,3.8228385576739306e-05
329.7254,3.875160258256012e-05
330.2075,4.1269867473067365e-05
330.6896,4.610755675425146e-05
331.1718,5.079330334370014e-05
331.6539,5.255570474033881e-05
332.136,5.110760399720694e-05
332.6181,5.096737605985093e-05
333.1002,5.283252399841815e-05
333.5823,5.559557682770414e-05
334.0645,5.844076870466684e-05
334.5466,6.139030723487648e-05
335.0287,6.513180389123957e-05
335.5108,7.033483252816454e-05
335.9929,7.675695203680626e-05
336.475,8.235894176244675e-05
336.9572,8.563800624779867e-05
337.4393,8.980299903309241e-05
337.9214,9.676833209021251e-05
338.4035,0.00010569811696408278
338.8856,0.00011476143840070493
339.3677,0.00012330700260527747
339.8499,0.0001310079504748554
340.332,0.0001366308871123001
340.8141,0.00013876722967522148
341.2962,0.00014169126340078062
341.7783,0.00014655230460956868
342.2604,0.00015247756530974323
342.7426,0.0001581196547947867
343.2247,0.000163085188121487
343.7068,0.00016853332471945435
344.1889,0.00017599154055085656
344.671,0.00018592629230911162
345.1531,0.00019708614747858275
345.6353,0.000209251114997104
346.1174,0.00022299563482797288
346.5995,0.00023868162305847347
347.0816,0.00025610945367958264
347.5637,0.00027483890212585943
348.0458,0.0002938522006223721
348.528,0.0003131436760471737
349.0101,0.00033889960119822134
349.4922,0.0003703727240898327
349.9743,0.0004074500671652859
350.4564,0.00044822245518064737
350.9385,0.0004943902730969134
351.4207,0.0005490234072107242
351.9028,0.0006131195026849775
352.3849,0.0006880619284867433
352.867,0.0007807321330494816
353.3491,0.0008963556920332398
353.8312,0.0010223533060644803
354.3134,0.0011700910992080797
354.7955,0.001321926147091162
355.2776,0.0014705105445868484
355.7597,0.0016111617841189053
356.2418,0.0017186170172634537
356.7239,0.001750947508892385
357.2061,0.00169063252495168
357.6882,0.0015776981227472319
358.1703,0.0013780178069157847
358.6524,0.001156278744354956
359.1345,0.0009447983348737994
359.6166,0.0007526705444650952
360.0987,0.000586925195520916
360.5808,0.00045421947844904005
361.063,0.00035618347028889825
361.5451,0.00027781942462977953
362.0272,0.00022729881904530835
362.5093,0.00018671345010130993
362.9914,0.00015247814716840444
363.4735,0.0001233363864676695
363.9557,9.947019278362597e-05
364.4378,8.121471670514136e-05
364.9199,6.789262626232418e-05
365.402,5.619227288479373e-05
365.8841,4.561067855049558e-05
366.3662,3.732524395806949e-05
366.8484,3.309704192687766e-05
367.3305,3.056701379376924e-05
367.8126,2.727887716212434e-05
368.2947,2.240393922897729e-05
368.7768,1.688079620075541e-05
369.2589,1.2269032940081905e-05
369.7411,8.70739849354883e-06
370.2232,6.203379442597318e-06
370.7053,5.877058558913973e-06
371.1874,5.51866271653042e-06
371.6695,3.3216177487764146e-06
372.1516,2.783029879678376e-07
372.6338,3.0543361239190316e-06
373.1159,2.5090133377937194e-06
373.598,1.2011793225952886e-06
374.0801,2.6393787708419134e-06
374.5622,6.514925965107642e-07
375.0443,3.2876953888268063e-06
375.5265,3.4937460872342682e-06
376.0086,1.9204487554947924e-06
376.4907,5.176505579617312e-07
376.9728,3.5819025232325282e-06
377.4549,6.7966813241630785e-06
377.937,9.021994925208423e-06
378.4192,9.908878443119085e-06
378.9013,1.0799461612350723e-05
379.3834,1.2628573104499206e-05
379.8655,1.4250775656714918e-05
380.3476,1.4134171181004773e-05
380.8297,1.2034786340715758e-05
381.3119,1.0595331047525314e-05
381.794,1.2972795839659676e-05
382.2761,1.9075664047351987e-05
382.7582,2.467012840097392e-05
383.2403,2.9135510568948924e-05
383.7224,3.3075774992809765e-05
384.2046,3.5904451781437944e-05
384.6867,3.831195502695821e-05
385.1688,4.289908627097306e-05
385.6509,5.2464158977638885e-05
386.133,6.490851562999322e-05
386.6151,7.498790775378526e-05
387.0973,8.166129322763407e-05
387.5794,8.955207248543772e-05
388.0615,9.968087410721237e-05
388.5436,0.00011331871985018945
389.0257,0.00013284337513347824
389.5078,0.000158942499918207
389.99,0.00019055158378365866
390.4721,0.00022548889919133603
390.9542,0.00026449258234122896
391.4363,0.0003125313667826745
391.9184,0.00037255333639922913
392.4005,0.0004411705221594478
392.8827,0.0005161803950776945
393.3648,0.0005986292824915227
393.8469,0.0006747596697266298
394.329,0.0007555812924178896
394.8111,0.0008213701117140994
395.2932,0.0008376316066487766
395.7754,0.0007981117663781523
396.2575,0.0007238452663878467
396.7396,0.0006205794156041416
397.2217,0.0004920890220917555
397.7038,0.00038333280146892227
398.1859,0.0002959261873320985
398.6681,0.00022790526123497352
399.1501,0.00018124800320817102
399.6323,0.00015344155964673315
400.1144,0.00013697452313997719
400.5965,0.00012913373523881736
401.0786,0.00012854232439790062
401.5607,0.0001320567022234976
402.0428,0.00014119532586852703
402.525,0.0001510010989568765
403.0071,0.0001634551532535846
403.4892,0.00017485429779748592
403.9713,0.00018198046628621384
404.4534,0.0001837985806496651
404.9355,0.00017863390619615946
405.4177,0.00016365565205059954
