wavelength,intensity
94.74744,0.0
95.22955,5.7238697198791e-06
95.71167,1.32303070878306e-05
96.19379,1.6195715813025244e-05
96.6759,1.671677024415516e-05
97.15802,1.55776606942464e-05
97.64014,1.1311007503191735e-05
98.12225,7.095737280745703e-06
98.60437,1.03336401146379e-05
99.08649,1.7245296710259686e-05
99.5686,1.893546035410686e-05
100.0507,1.7145745542145705e-05
100.5328,1.4914147867559094e-05
101.015,1.2005562489455568e-05
101.4971,7.593080971430566e-06
101.9792,1.5661598654950754e-06
102.4613,2.982976007941561e-06
102.9434,5.0597216974866215e-06
103.4255,5.083175450356297e-06
103.9077,3.496558404096871e-06
104.3898,7.928454606118188e-07
104.8719,4.363799343368901e-06
105.354,1.5113468400785014e-05
105.8361,3.43230860095961e-05
106.3182,5.4713188167951465e-05
106.8004,7.490188964836701e-05
107.2825,9.50999008673622e-05
107.7646,0.00011560716996480023
108.2467,0.00013659631501017878
108.7288,0.00015804619513880663
109.2109,0.00017965569849349807
109.6931,0.00020281600064502814
110.1752,0.00022496076547982787
110.6573,0.00024589162768264006
111.1394,0.0002653733224014415
111.6215,0.00028289410494368184
112.1036,0.00029755466426021113
112.5858,0.00030890478721190394
113.0679,0.0003210020166846139
113.55,0.0003303295989298772
114.0321,0.0003425023245638815
114.5142,0.000361329234335914
114.9964,0.00038741342474833793
115.4785,0.00041944222266142225
115.9606,0.00045693433398588765
116.4427,0.000499440321394157
116.9248,0.0005455555295898037
117.4069,0.000594723556228028
117.8891,0.0006472295120528317
118.3712,0.0007033017765887471
118.8533,0.0007601163957999463
119.3354,0.0008259357626758706
119.8175,0.0009046976057063825
120.2996,0.000996255975343957
120.7818,0.0011006899073900778
121.2639,0.0012147041422933221
121.746,0.0013377556119698768
122.2281,0.0014849057278656357
122.7102,0.0016497841074045849
123.1923,0.0018496884388206048
123.6745,0.0020924679954536654
124.1566,0.0023810723158339763
124.6387,0.0027163373369048353
125.1208,0.0031027831306995506
125.6029,0.0035457501899637625
126.085,0.0040385815667308015
126.5672,0.004654674852056873
127.0493,0.005270916996223776
127.5314,0.0058251276733993496
128.0135,0.00629068733471462
128.4956,0.006619253223065871
128.9777,0.006679102235195376
129.4599,0.006314921747954778
129.942,0.0058234305856374345
130.4241,0.00512665483881658
130.9062,0.004328109102853595
131.3883,0.0035625770575642667
131.8704,0.002893838655216914
132.3526,0.0023248448889883998
132.8347,0.001861457500008382
133.3168,0.0015090674087731397
133.7989,0.001225080621751893
134.281,0.0010047705070865974
134.7632,0.000842669532890578
135.2453,0.0007137388663245293
135.7274,0.0006074720794955393
136.2095,0.0005238512317615538
136.6916,0.0004527710382883558
137.1737,0.00039497831466763194
137.6559,0.00034859608183470336
138.138,0.00031296494846173303
138.6201,0.0002893038599557725
139.1022,0.0002706013709607993
139.5843,0.00025379811712429687
140.0664,0.0002385190905391037
140.5486,0.00022479983307177644
141.0307,0.00021270856765034417
141.5128,0.0002021315893947584
141.9949,0.00019294021056444428
142.477,0.0001853037520298191
142.9591,0.00017898874300306518
143.4413,0.0001746025954382829
143.9234,0.00017127368506095246
144.4055,0.00016745829235461339
144.8876,0.00016216842131250007
145.3697,0.00015541600003716777
145.8518,0.00014752434799137227
146.334,0.00013528441768199611
146.8161,0.00012475505486018757
147.2982,0.00011932466495138766
147.7803,0.00011770855251982613
148.2624,0.0001158897593212701
148.7445,0.0001095467725905554
149.2267,9.697280692141247e-05
149.7088,8.7157384676931e-05
150.1909,8.212207679910508e-05
150.673,7.7587264346379e-05
151.1551,7.118080653336868e-05
151.6372,6.257695948622977e-05
152.1194,5.2968921366254415e-05
152.6015,4.2922835801995525e-05
153.0836,3.315393800630143e-05
153.5657,2.3983307286082248e-05
154.0478,1.4815333720416003e-05
154.5299,6.495850698663709e-06
155.0121,2.5603235255814776e-07
155.4942,3.4884560222392674e-06
155.9763,6.1704559400161515e-06
156.4584,9.979128178818044e-06
156.9405,1.5051611976274271e-05
157.4226,1.9275983437946347e-05
157.9048,2.2055236182125362e-05
158.3869,2.3615664739807338e-05
158.869,2.4241521613468822e-05
159.3511,2.368103171157416e-05
159.8332,2.28568531620552e-05
160.3153,2.3581853902767803e-05
160.7975,2.5913928870504175e-05
161.2796,2.6225005057263345e-05
161.7617,2.1457866138753182e-05
162.2438,1.1896134270567235e-05
162.7259,2.2216478914796072e-06
163.2081,6.370368029547656e-06
163.6902,1.4801019997349787e-05
164.1723,2.3780321043290588e-05
164.6544,3.3450443482419e-05
165.1365,4.3130258717079046e-05
165.6186,5.2154222264091296e-05
166.1008,6.0352804753684706e-05
166.5829,6.848733430232124e-05
167.065,7.494068022578222e-05
167.5471,8.246372480968962e-05
168.0292,9.342773605143569e-05
168.5113,0.0001082768660624247
168.9935,0.00012471791288231249
169.4756,0.0001388088325694993
169.9577,0.0001489362765210644
170.4398,0.00015981160280519497
170.9219,0.00017088718544523156
171.404,0.00018314098338603367
171.8862,0.00019725779578364511
172.3683,0.00021351361759637525
172.8504,0.00023183595893267933
173.3325,0.00025231908089567637
173.8146,0.0002778898780160099
174.2967,0.0003020024888430836
174.7789,0.0003234107660774336
175.261,0.0003436545986660005
175.7431,0.00036380155178747294
176.2252,0.0003843992514185102
176.7073,0.00040620498660670087
177.1894,0.00043187431179366907
177.6716,0.000463695143723586
178.1537,0.0004961232421429382
178.6358,0.0005281259533927109
179.1179,0.0005601257553491773
179.6,0.0005933047908590664
180.0821,0.000627986961243795
180.5643,0.0006643749472703581
181.0464,0.0007027732549714648
181.5285,0.0007433637151787489
182.0106,0.000785693447900888
182.4927,0.0008295287399089551
182.9748,0.0008749432933000394
183.457,0.000922257615220034
183.9391,0.0009714489162047073
184.4212,0.0010231451187259683
184.9033,0.0010767202398407792
185.3854,0.0011313659808922499
185.8675,0.001189223096871483
186.3497,0.0012534719302443088
186.8318,0.0013243074036622382
187.3139,0.001394862615158343
187.796,0.0014598028905735952
188.2781,0.0015241249411612919
188.7602,0.0015925844917125396
189.2424,0.0016663103480301208
189.7245,0.0017444946963393634
190.2066,0.001826406819138209
190.6887,0.0019125194765889045
191.1708,0.0020014051754425706
191.653,0.0020917333988938647
192.1351,0.0021848458160391364
192.6172,0.0022827760228993784
193.0993,0.0023861141211335194
193.5814,0.0024932682424208823
194.0635,0.0025998521422202414
194.5457,0.0027039990239934894
195.0278,0.002811303458768337
195.5099,0.002922164019727724
195.992,0.003036114250178233
196.4741,0.0031538349247535015
196.9562,0.0032758681417729067
197.4384,0.0033995630501523363
197.9205,0.0035183170087335026
198.4026,0.00362870723394173
198.8847,0.0037375637766954035
199.3668,0.0038446752283476096
199.8489,0.003951189305107621
200.3311,0.004059447988086883
200.8132,0.004170810887023797
201.2953,0.004283113487698595
201.7774,0.004386449646403865
202.2595,0.004476708046815812
202.7416,0.004561985737087645
203.2238,0.004651045508657462
203.7059,0.004734257600681935
204.188,0.004799381161575474
204.6701,0.004839466374511925
205.1522,0.0048568954658268
205.6343,0.004860517535992946
206.1165,0.00484902097861151
206.5986,0.004827238129863995
207.0807,0.004797120640676602
207.5628,0.00475727059561573
208.0449,0.004704535775384177
208.527,0.0046368840386076015
209.0092,0.004555610020807236
209.4913,0.004466686986022809
209.9734,0.0043683116572867265
210.4555,0.004266605187715114
210.9376,0.00416502042358014
211.4197,0.0040622365457208195
211.9019,0.003953162775733621
212.384,0.0038357994593527906
212.8661,0.003711049447267666
213.3482,0.0035827423392335673
213.8303,0.0034498453361268126
214.3124,0.003316416417227252
214.7946,0.0031858580010564173
215.2767,0.003057410277179188
215.7588,0.0029300821463426052
216.2409,0.0028018918949229694
216.723,0.0026756629920738906
217.2052,0.002553161378832197
217.6873,0.002435060556598259
218.1694,0.0023209124942029325
218.6515,0.002209764398088455
219.1336,0.002101346673741791
219.6157,0.0019995723206597013
220.0979,0.0019076498044766415
220.58,0.0018220899127541126
221.0621,0.0017382469889644248
221.5442,0.0016552375777069469
222.0263,0.0015758240529758594
222.5084,0.0015032323361654557
222.9906,0.001437572980421369
223.4727,0.0013749286223068804
223.9548,0.0013148109854287755
224.4369,0.0012568316791306843
224.919,0.0012011565331310572
225.4011,0.001147604201480478
225.8833,0.001097124083561184
226.3654,0.0010506922472773856
226.8475,0.0010092420908981365
227.3296,0.0009683476095403606
227.8117,0.0009257065824344646
228.2938,0.0008840998090989015
228.776,0.0008461306221604507
229.2581,0.0008121912913332235
229.7402,0.0007808751733037002
230.2223,0.0007500987291824662
230.7044,0.0007193179211212729
231.1865,0.0006900480060504025
231.6687,0.0006630129131208663
232.1508,0.0006368738825296216
232.6329,0.0006113957464010887
233.115,0.0005864146145456883
233.5971,0.0005616027065842617
234.0792,0.0005355431966767182
234.5614,0.0005055178351106864
235.0435,0.0004812427402524647
235.5256,0.00046511754570918034
236.0077,0.00045214040047602795
236.4898,0.0004406458311116852
236.9719,0.00042971920428892303
237.4541,0.0004177787857254142
237.9362,0.0004021823067522992
238.4183,0.0003800340022773104
238.9004,0.00036136235179138227
239.3825,0.00034627475670573316
239.8646,0.0003339944357076234
240.3468,0.0003255431326061699
240.8289,0.000320448620609564
241.311,0.00031607105546003486
241.7931,0.0003086323318937838
242.2752,0.0002963408101164454
242.7573,0.0002853393659674937
243.2395,0.0002760692422650266
243.7216,0.0002680076874901525
244.2037,0.00026027071287180016
244.6858,0.0002528855203023821
245.1679,0.0002471181372522875
245.6501,0.0002448084977847636
246.1322,0.0002475020669922546
246.6143,0.00024810821825258916
247.0964,0.0002450034689244969
247.5785,0.00024092599737949623
248.0606,0.00023755529015500085
248.5428,0.00023511356877137818
249.0249,0.00023302270816047613
249.507,0.00023089693602990045
249.9891,0.0002287776613210418
250.4712,0.00022553738741310506
250.9533,0.00022004115049914283
251.4355,0.00021434397839416975
251.9176,0.0002096562340899842
252.3997,0.0002061010291816577
252.8818,0.00020336488731545352
253.3639,0.00020129739802744414
253.846,0.0001999250358867155
254.3282,0.00019864087382138473
254.8103,0.00019655122541602693
255.2924,0.00019530139301170856
255.7745,0.00019617073833980538
256.2566,0.00019911891919980552
256.7387,0.00020313738057891326
257.2209,0.0002071946325354362
257.703,0.0002118476107846134
258.1851,0.00021916171962091806
258.6672,0.00023067296893354932
259.1493,0.00024361631787612868
259.6314,0.0002548931266365067
260.1136,0.0002650141216545766
260.5957,0.0002786770358082082
261.0778,0.0002988123032682343
261.5599,0.0003251740402620641
262.042,0.00035466792242928565
262.5241,0.00038919415469280527
263.0063,0.0004245891019375387
263.4884,0.0004616136413394854
263.9705,0.0004991789698788221
264.4526,0.0005284547035363048
264.9347,0.0005483154791728964
265.4168,0.000553321888070548
265.899,0.0005383302996640017
266.3811,0.0004992240639250673
266.8632,0.00044860526969151384
267.3453,0.0003896337004231415
267.8274,0.0003241127785522055
268.3095,0.0002648765120811961
268.7917,0.0002166418837120255
269.2738,0.00017811765209898466
269.7559,0.00014626496340736545
270.238,0.0001214948522931038
270.7201,0.00010090888681173465
271.2022,8.307322175732624e-05
271.6844,6.794824225269325e-05
272.1665,5.5107397410933615e-05
272.6486,4.502527055143381e-05
273.1307,3.693431251887892e-05
273.6128,2.9472765546641184e-05
274.0949,2.2590056419415505e-05
274.5771,1.722672572132215e-05
275.0592,1.5004224437139408e-05
275.5413,1.5236526658812618e-05
276.0234,1.3721657634304814e-05
276.5055,8.463982771446158e-06
276.9876,3.1029116244872385e-06
277.4698,6.847312725334292e-07
277.9519,7.535796986232643e-07
278.434,8.410669971611118e-07
278.9161,6.282812847499331e-07
279.3982,3.335747216599908e-06
279.8803,6.22076731892369e-06
280.3625,1.0370428128494058e-05
280.8446,1.2691607792798937e-05
281.3267,1.0112378661061495e-05
281.8088,4.467956892550939e-06
282.2909,7.937037021371306e-08
282.773,2.1295542603619242e-07
283.2552,2.5139154970145677e-06
283.7373,4.8498016389819915e-06
284.2194,6.97513737556179e-06
284.7015,8.295699548974587e-06
285.1836,7.877207404530508e-06
285.6658,6.736827463211397e-06
286.1479,6.5321586791243525e-06
286.63,8.419795454948047e-06
287.1121,1.1285221466854966e-05
287.5942,1.2602544627053595e-05
288.0764,1.2067821366206993e-05
288.5585,1.0611754008238481e-05
289.0406,7.275730408774491e-06
289.5227,3.796855659156782e-06
290.0048,2.181955433139485e-06
290.4869,3.3160319056286235e-06
290.9691,5.952283186166435e-06
291.4512,8.082671395454566e-06
291.9333,9.624747161196966e-06
292.4154,1.0895487686742095e-05
292.8975,1.2162969803784345e-05
293.3796,1.3093405442487943e-05
293.8618,1.3467846037454866e-05
294.3439,1.3230893795314006e-05
294.826,1.2254864681680996e-05
295.3081,1.0083174205090013e-05
295.7902,6.350613927998955e-06
296.2723,3.1572329793350743e-06
296.7545,2.644402053640741e-07
297.2366,1.5400635045389874e-06
297.7187,8.239215619435853e-07
298.2008,2.1380784412606968e-06
298.6829,4.740004909608217e-06
299.165,3.4382464685974445e-06
299.6472,2.4430208679660798e-06
300.1293,5.787597789750126e-06
300.6114,3.4476628812649887e-06
301.0935,8.288867558527332e-07
301.5756,6.754942662864303e-07
302.0577,2.4769044373382726e-06
302.5399,3.903941896933668e-06
303.022,2.636901022709516e-06
303.5041,1.134779551704789e-06
303.9862,3.1422598164528004e-06
304.4683,2.2311564317685125e-06
304.9504,7.231775835740872e-07
305.4326,7.556840874480399e-07
305.9147,2.1658621923343467e-06
306.3968,3.5052814351931182e-06
306.8789,4.730971553892648e-06
307.361,5.91143670814821e-06
307.8431,7.410867082844757e-06
308.3253,9.77290777163439e-06
308.8074,1.1564857890619097e-05
309.2895,1.1723225271738901e-05
309.7716,1.1412110294402323e-05
310.2537,1.2191039635366431e-05
310.7358,1.4866386969116606e-05
311.218,1.858433289616648e-05
311.7001,2.13914421237518e-05
312.1822,2.3035750456272004e-05
312.6643,2.382351435124243e-05
313.1464,2.271359471083862e-05
313.6285,2.1636443410706316e-05
314.1107,2.2440121140061333e-05
314.5928,2.555949936466133e-05
315.0749,2.9502925220581515e-05
315.557,3.203252665733836e-05
316.0391,3.266144313779347e-05
316.5212,3.3633903518304276e-05
317.0034,3.573905360816163e-05
317.4855,3.7601418322799314e-05
317.9676,3.839430257398855e-05
318.4497,3.8086693295085865e-05
318.9318,3.723245204807011e-05
319.4139,3.6406018796238895e-05
319.8961,3.563298077421972e-05
320.3782,3.504925046763116e-05
320.8603,3.488506449989907e-05
321.3424,3.4712460976867886e-05
321.8245,3.3908710515180214e-05
322.3066,3.291894953714222e-05
322.7888,3.2793151694584665e-05
323.2709,3.438345869452071e-05
323.753,3.7521892790275935e-05
324.2351,4.109197388504118e-05
324.7172,4.6386950736906736e-05
325.1993,5.0197092168828234e-05
325.6815,5.0999766191992634e-05
326.1636,5.004692414600958e-05
326.6457,4.909539128201428e-05
327.1278,4.9032356593714546e-05
327.6099,4.938234457844335e-05
328.092,4.878758805022452e-05
328.5742,4.6325695566345936e-05
329.0563,4.495961749915856e-05
329.5384,4.594847174744947e-05
330.0205,4.78648620387822e-05
330.5026,4.938472050131003e-05
330.9847,5.013711223849995e-05
331.4669,5.10017057208634e-05
331.949,5.362259108392261e-05
332.4311,5.872156399693125e-05
332.9132,6.239493470170887e-05
333.3953,6.117128593714582e-05
333.8774,6.052042853634022e-05
334.3596,6.407907610841232e-05
334.8417,7.171039489152993e-05
335.3238,8.009842086357492e-05
335.8059,8.56705418446057e-05
336.288,8.836978417404365e-05
336.7701,9.314369204831277e-05
337.2523,0.00010157414521440563
337.7344,0.00011038135186364381
338.2165,0.00011819518031350004
338.6986,0.0001251961037253986
339.1807,0.0001322379511964702
339.6628,0.0001403165253371853
340.145,0.00014863618291653595
340.6271,0.0001541025025976667
341.1092,0.0001549605986583131
341.5913,0.0001558894390345205
342.0735,0.00015802345416279694
342.5556,0.00016144905005433487
343.0377,0.00016655267783663333
343.5198,0.0001736540688440373
344.0019,0.00018195336137024498
344.484,0.0001900258744832389
344.9662,0.00019769273513291325
345.4483,0.00020593418121055048
345.9304,0.0002138309730078535
346.4125,0.00022349554839441155
346.8946,0.000236646281461497
347.3767,0.00025362501417258146
347.8589,0.0002733927893998201
348.341,0.00029451973797146625
348.8231,0.0003170438746533868
349.3052,0.00034242503433838163
349.7873,0.0003681020691526111
350.2694,0.0004009508028958096
350.7516,0.0004433403700836116
351.2337,0.0004955176242530431
351.7158,0.000557217916689689
352.1979,0.0006289557559147401
352.68,0.000710566281974182
353.1621,0.0008028020320698699
353.6443,0.0009106437163419176
354.1264,0.0010184083043413526
354.6085,0.0011372286917863425
355.0906,0.0012467873439912312
355.5727,0.0013113188636969704
356.0548,0.0013215241797326963
356.537,0.0012792560270522041
357.0191,0.001172105299940365
357.5012,0.0009952285099246714
357.9833,0.0008151796204408483
358.4654,0.0006466166209296713
358.9475,0.0004978920924730722
359.4297,0.0003798626933898004
359.9118,0.0002953614935013765
360.3939,0.00023143821004950802
360.876,0.00018271554772823222
361.3581,0.00014774104185445803
361.8402,0.00011936709214543555
362.3224,9.745885285642514e-05
362.8045,8.041180024086812e-05
363.2866,6.68246246896397e-05
363.7687,5.6445138961319176e-05
364.2508,4.786376135614804e-05
364.7329,4.073076087697285e-05
365.2151,3.4975136220657214e-05
365.6972,3.081468678174324e-05
366.1793,2.8515035887903804e-05
366.6614,2.63529848698005e-05
367.1435,2.2866516864653763e-05
367.6256,1.840133834721019e-05
368.1078,1.412278129771123e-05
368.5899,9.356306667839304e-06
369.072,5.601892749196947e-06
369.5541,4.707508103378618e-06
370.0362,6.2211067364760735e-06
370.5183,7.329649311381644e-06
371.0005,6.634565803500528e-06
371.4826,4.7268985432640506e-06
371.9647,2.986646566329476e-06
372.4468,1.4025848493572776e-06
372.9289,1.4723448540163705e-07
373.411,1.1077085774911439e-06
373.8932,1.985233868600384e-06
374.3753,1.7081770182343656e-06
374.8574,5.19842225585691e-08
375.3395,2.725993281387918e-06
375.8216,6.649985058023078e-06
376.3037,1.1919709243991335e-05
376.7859,1.6313648866011863e-05
377.268,1.888293791228665e-05
377.7501,2.1000253696985852e-05
378.2322,2.4268481064772397e-05
378.7143,2.8561972486576215e-05
379.1964,3.196081257734198e-05
379.6786,3.2832427154217576e-05
380.1607,3.142044043865928e-05
380.6428,3.091596897937437e-05
381.1249,3.15816395319304e-05
381.607,3.278400196713685e-05
382.0891,3.391557159856053e-05
382.5713,3.548513533722379e-05
383.0534,3.838770817582796e-05
383.5355,4.302535444928177e-05
384.0176,4.908705130787e-05
384.4997,5.605766958116292e-05
384.9818,6.496306487948337e-05
385.464,7.31721208249789e-05
385.9461,7.889305215861879e-05
386.4282,8.492634461689473e-05
386.9103,9.285833886320206e-05
387.3924,0.00010329174349412973
387.8745,0.00011722643413077673
388.3567,0.00013566330464689927
388.8388,0.00015885876075921192
389.3209,0.00018495478229774747
389.803,0.00021051539689150947
390.2851,0.00024207948368715952
390.7672,0.00028162735014996616
391.2494,0.00032914430434873346
391.7315,0.00038548980001431725
392.2136,0.0004516519301299268
392.6957,0.0005247579615086345
393.1778,0.0005941989136684871
393.6599,0.0006836179829616125
394.1421,0.0007320261991647161
394.6242,0.0007297055528708506
395.1063,0.0006901357697318045
395.5884,0.0006137163926949541
396.0706,0.000505200722140317
396.5527,0.00039078485929615987
397.0348,0.0003031022502010268
397.5169,0.00024567755218352983
397.999,0.00020294929476667118
398.4811,0.00017998008469713285
398.9633,0.0001681186049586639
399.4454,0.00016738517211618568
399.9275,0.00017541225176538207
400.4096,0.00018776161999129088
400.8917,0.0002016074317174353
401.3738,0.00021727407314745
401.856,0.00023771370117552023
402.3381,0.0002701601766309229
402.8202,0.00029308245010178886
403.3023,0.00030367009576616385
403.7844,0.0003012647890370897
404.2665,0.00028225071472902873
