wavelength,intensity
172.452,0.0
172.9341,1.5045880668461173e-05
173.4163,8.794851850331438e-06
173.8984,1.76555313105365e-06
174.3805,3.138904431506384e-06
174.8626,1.238912856775942e-06
175.3447,1.1823901366597924e-06
175.8268,1.2637727680769199e-06
176.309,1.1326620710601358e-05
176.7911,2.8432673794406942e-05
177.2732,4.985617148157024e-05
177.7553,7.0728556888929e-05
178.2374,8.965380077470912e-05
178.7195,0.00010793410282273949
179.2017,0.00012595770822472463
179.6838,0.00014398960511263228
180.1659,0.00016033144503078067
180.648,0.00017477114049715205
181.1301,0.0001925282061440729
181.6122,0.00022051599565492684
182.0944,0.0002567793184633217
182.5765,0.00029419074538676343
183.0586,0.0003294926922221439
183.5407,0.00036380994024983897
184.0228,0.00040207703882283864
184.5049,0.0004443785998881299
184.9871,0.000488256513043132
185.4692,0.0005295966011589653
185.9513,0.0005692992420256587
186.4334,0.0006098213338402486
186.9155,0.0006500321312710812
187.3976,0.0006918842550087955
187.8798,0.0007444629431662527
188.3619,0.0008094032185815046
188.844,0.000878788409286323
189.3261,0.0009396294904332217
189.8082,0.000993115878102195
190.2903,0.001047475053763011
190.7725,0.001106745601406811
191.2546,0.0011711350506227668
191.7367,0.0012367488274383906
192.2188,0.0013034967437611916
192.7009,0.0013717870704184653
193.183,0.001440241772147536
193.6652,0.0015085107639872313
194.1473,0.0015803203657805008
194.6294,0.0016584906525054304
195.1115,0.0017424470387340575
195.5936,0.001824763068420239
196.0757,0.0019045237688191925
196.5579,0.0019833404035403033
197.04,0.002064449076504436
197.5221,0.0021480233755455233
198.0042,0.0022316898022079717
198.4863,0.0023153009522976034
198.9684,0.002398543107019573
199.4506,0.0024820097622083328
199.9327,0.002566113552631138
200.4148,0.002648928526119322
200.8969,0.002724408201418289
201.379,0.0027924609357888944
201.8611,0.0028577629333385434
202.3433,0.0029268242227219444
202.8254,0.0030014655366665246
203.3075,0.003059336714230071
203.7896,0.0030968762955236482
204.2717,0.003118062739143405
204.7538,0.0031324574375399747
205.236,0.003140959362344955
205.7181,0.0031393931927818156
206.2002,0.0031241499505042882
206.6823,0.0030939825184484733
207.1644,0.003058025107831219
207.6465,0.003016333964989778
208.1287,0.0029697018723500736
208.6108,0.0029190535003012406
209.0929,0.0028642332016514016
209.575,0.0028055420882577417
210.0571,0.0027448120451386937
210.5392,0.002683120965464184
211.0214,0.0026127412813308835
211.5035,0.0025308563119362287
211.9856,0.002440899508263685
212.4677,0.002351578385178533
212.9498,0.0022628434846945684
213.4319,0.0021745561304975323
213.914,0.0020851690634307745
214.3962,0.0019934337117837432
214.8783,0.0019049766488105151
215.3604,0.0018219429934421523
215.8425,0.001742422794623173
216.3246,0.001661858159507289
216.8067,0.0015775235651488636
217.2889,0.0014958650357498702
217.771,0.001419763256565607
218.2531,0.001348989363189324
218.7352,0.001284019025076575
219.2173,0.0012262574308942271
219.6994,0.0011734333923346186
220.1816,0.0011175764155033577
220.6637,0.0010547293766218742
221.1458,0.0009939280558168262
221.6279,0.0009417978837107324
222.11,0.0009002395985969385
222.5921,0.0008612279148904538
223.0743,0.0008246828270253591
223.5564,0.0007902241873429854
224.0385,0.0007537537713394151
224.5206,0.0007147944549124409
225.0027,0.0006762249837884896
225.4848,0.0006395000046206319
225.967,0.0006036041740450245
226.4491,0.0005722541142602629
226.9312,0.0005479178757543905
227.4133,0.0005292911253618204
227.8954,0.0005072275298102621
228.3775,0.0004793399169655829
228.8597,0.00045070636131720905
229.3418,0.0004271679965005459
229.8239,0.00041030117460530435
230.306,0.0003903166570267581
230.7881,0.00037135558034509075
231.2702,0.00035309157033957476
231.7524,0.0003340180979598467
232.2345,0.0003134453212747988
232.7166,0.0002938430848366796
233.1987,0.0002768004446493035
233.6808,0.0002628405401373366
234.1629,0.00025000614422907225
234.6451,0.00023815213167675575
235.1272,0.00022723306901658956
235.6093,0.00021699715691292712
236.0914,0.00020826675560697106
236.5735,0.00019881029166824568
237.0556,0.00018705277067724953
237.5378,0.00017068576537200304
238.0199,0.0001574359223796217
238.502,0.0001487628826400184
238.9841,0.0001436289497191143
239.4662,0.00013800121274771447
239.9483,0.00013146955834609651
240.4305,0.00012500879372470485
240.9126,0.0001189421898580736
241.3947,0.00011315298710818292
241.8768,0.00010765791391154313
242.3589,0.00010222650575008608
242.841,9.73066483282922e-05
243.3232,9.432772593569053e-05
243.8053,9.480678956676847e-05
244.2874,9.490604495672965e-05
244.7695,9.236497120670226e-05
245.2516,8.475154457741741e-05
245.7337,7.997307881030201e-05
246.2159,7.921962033223316e-05
246.698,8.138801360974385e-05
247.1801,8.298259727083992e-05
247.6622,8.386309488994359e-05
248.1443,8.424697614168896e-05
248.6264,8.410126903527305e-05
249.1086,8.267649112681209e-05
249.5907,8.253946341209284e-05
250.0728,8.393456652883116e-05
250.5549,8.649726602576752e-05
251.037,8.935346472907179e-05
251.5191,9.254748087344086e-05
252.0013,9.59985330814075e-05
252.4834,9.991652686500983e-05
252.9655,0.00010498437033964278
253.4476,0.00010849603282482069
253.9297,0.00010843299813652095
254.4118,0.00010756282850865408
254.894,0.00011259740906315346
255.3761,0.00012647531999210895
255.8582,0.00014130539413194273
256.3403,0.00015323199355224746
256.8224,0.0001601951931276097
257.3046,0.00017036060335681998
257.7867,0.00018235673488714148
258.2688,0.00019829083734843414
258.7509,0.0002229206235488962
259.233,0.00025843528821317734
259.7151,0.00029762715415175583
260.1973,0.00033798428903588745
260.6794,0.00037826049707788666
261.1615,0.00042215140507632286
261.6436,0.00046971951434905646
262.1257,0.0005203498972676127
262.6078,0.0005748302934828511
263.09,0.000637594902387327
263.5721,0.000693124583721647
264.0542,0.000739303311487811
264.5363,0.0007797483070297881
265.0184,0.0007885925586804578
265.5005,0.0007622746065508855
265.9827,0.0007092803743328676
266.4648,0.0006358396287592884
266.9469,0.0005334189276810173
267.429,0.00043666470566333963
267.9111,0.000354772608500085
268.3932,0.0002885240723732831
268.8754,0.00023081164524780873
269.3575,0.00018177764005455403
269.8396,0.00014099046313155293
270.3217,0.0001097936261275815
270.8038,8.990516371635975e-05
271.2859,7.327477039046391e-05
271.7681,5.802129709814303e-05
272.2502,4.4226485283655294e-05
272.7323,3.271933807458568e-05
273.2144,2.3733486269883888e-05
273.6965,1.704468154151253e-05
274.1786,1.3178739863979244e-05
274.6608,1.2726048976721473e-05
275.1429,1.1597117104562027e-05
275.625,8.505265643460304e-06
276.1071,3.8087837617119614e-06
276.5892,6.740347708111828e-08
277.0714,2.9250083388166947e-06
277.5535,5.2284122210210504e-06
278.0356,7.5764349648972605e-06
278.5177,1.0079678204300467e-05
278.9998,1.1398572382884413e-05
279.4819,1.0748893245867809e-05
279.9641,8.82078335133351e-06
280.4462,8.743357358812735e-06
280.9283,1.0844482926263259e-05
281.4104,1.3428890600085632e-05
281.8925,1.5272577651697887e-05
282.3746,1.6370472213102978e-05
282.8568,1.7144785475354678e-05
283.3389,1.781888328085416e-05
283.821,1.8080462690831507e-05
284.3031,1.6097308966945014e-05
284.7852,1.140315936866376e-05
285.2673,8.34068207230971e-06
285.7495,1.1992650075998475e-05
286.2316,2.1574286359220604e-05
286.7137,2.635777550611128e-05
287.1958,2.395626540480166e-05
287.6779,1.7670572356929252e-05
288.16,1.376483154696795e-05
288.6422,1.2253899766067794e-05
289.1243,1.2039484849405175e-05
289.6064,1.3074010153780334e-05
290.0885,1.504846993950364e-05
290.5706,1.6186687306131852e-05
291.0527,1.62718859606022e-05
291.5349,1.565501395443452e-05
292.017,1.4971189411648171e-05
292.4991,1.4176680805029676e-05
292.9812,1.2755127363316356e-05
293.4633,9.850760460506736e-06
293.9454,6.047931052428009e-06
294.4276,3.1396802430546885e-06
294.9097,1.2253022129253775e-06
295.3918,2.3679707983119864e-07
295.8739,4.783993521373518e-07
296.356,1.7232714016710623e-06
296.8381,2.986564136352469e-06
297.3203,4.206537493705431e-06
297.8024,5.025168990654016e-06
298.2845,4.387771920211506e-06
298.7666,2.143814597895972e-06
299.2487,2.391245144761117e-07
299.7308,9.380094989439187e-07
300.213,5.283034202843855e-07
300.6951,6.726528564907656e-07
301.1772,2.3394015380456782e-06
301.6593,4.786155999087972e-06
302.1414,7.251442658490387e-06
302.6235,9.708966353587582e-06
303.1057,1.1579656495903003e-05
303.5878,1.1940418563508886e-05
304.0699,1.1402936322843624e-05
304.552,1.1121787066560302e-05
305.0341,1.1704508818136059e-05
305.5162,1.2499022273576733e-05
305.9984,1.2571415188677884e-05
306.4805,1.2077960253378894e-05
306.9626,1.2027168841075842e-05
307.4447,1.3336666002280952e-05
307.9268,1.5436792712363032e-05
308.4089,1.769624687035595e-05
308.8911,2.0367036311259833e-05
309.3732,2.2516364019970945e-05
309.8553,2.2510923641488457e-05
310.3374,2.1119558966648533e-05
310.8195,2.0932593232329358e-05
311.3016,2.5472370878964576e-05
311.7838,3.0823453452239075e-05
312.2659,3.316033845157494e-05
312.748,3.055047931014601e-05
313.2301,2.7700123437564904e-05
313.7122,2.737598937268334e-05
314.1943,2.8826320574016573e-05
314.6765,3.050250021470556e-05
315.1586,3.2165655919027386e-05
315.6407,3.3513924262359006e-05
316.1228,3.412065738135479e-05
316.6049,3.363052873806915e-05
317.087,3.371664866875311e-05
317.5692,3.566291740233991e-05
318.0513,3.851619711469369e-05
318.5334,4.0936758238336365e-05
319.0155,4.3291254159818736e-05
319.4976,4.452032875639774e-05
319.9797,4.3504742951445566e-05
320.4619,3.999464663583078e-05
320.944,3.721339132809271e-05
321.4261,3.6362025432627855e-05
321.9082,3.658838784713436e-05
322.3903,3.709445941773765e-05
322.8724,3.782689340284744e-05
323.3546,3.8693023961840965e-05
323.8367,3.970379973519365e-05
324.3188,4.085193294317363e-05
324.8009,4.201382710849166e-05
325.283,4.273202010286789e-05
325.7651,4.372755602811858e-05
326.2473,4.547076578658106e-05
326.7294,5.0245143996601336e-05
327.2115,5.320864713468046e-05
327.6936,5.272245573500247e-05
328.1757,4.9644471905326686e-05
328.6578,4.819279273142827e-05
329.14,4.97317991927327e-05
329.6221,5.182270829185649e-05
330.1042,5.3514704790486534e-05
330.5863,5.518914855283619e-05
331.0684,5.576324909858142e-05
331.5505,5.391109600344829e-05
332.0327,5.119042187998843e-05
332.5148,5.117267519082097e-05
332.9969,5.539832674154775e-05
333.479,6.027856928615634e-05
333.9611,6.500112813357205e-05
334.4432,7.000816737810663e-05
334.9254,7.266377030795247e-05
335.4075,7.151566619290554e-05
335.8896,6.913537938626422e-05
336.3717,6.912703941211996e-05
336.8538,7.219857430830046e-05
337.3359,7.612495655426884e-05
337.818,8.031603600287429e-05
338.3001,8.467454528124821e-05
338.7823,8.99919576333263e-05
339.2644,9.649868908895497e-05
339.7465,0.00010326682054814044
340.2286,0.00010954638468478125
340.7107,0.00011534295764438082
341.1928,0.00012039203617718914
341.675,0.0001241153012621671
342.1571,0.00012732977943612266
342.6392,0.00013260495854703995
343.1213,0.00014005042197611688
343.6034,0.00014819915857373174
344.0855,0.00015646426690359226
344.5677,0.00016501598911232944
345.0498,0.00017276052789327775
345.5319,0.00017911607307343063
346.014,0.0001856249864990389
346.4961,0.00019511233743503117
346.9782,0.00020741375080961043
347.4604,0.00022203896221247008
347.9425,0.00023805117919903265
348.4246,0.00025609010687909677
348.9067,0.0002777500864726498
349.3888,0.0003032026693083104
349.8709,0.00033212007500692015
350.3531,0.0003629933985952486
350.8352,0.00039671603555939026
351.3173,0.0004363853165295065
351.7994,0.0004842338816769522
352.2815,0.0005389461000804682
352.7636,0.0006001775114126076
353.2458,0.0006679073142262313
353.7279,0.0007378181172550259
354.21,0.0008194058538502363
354.6921,0.0008985939083500979
355.1742,0.0009520356868550438
355.6563,0.0009803969326499628
356.1385,0.0009724458340442785
356.6206,0.0009051723053975011
357.1027,0.0007863785864744843
357.5848,0.0006574411315573879
358.0669,0.0005245460679795038
358.549,0.00040151680590851937
359.0312,0.0003025144759767427
359.5133,0.00023237669958184746
359.9954,0.00017898733684463386
360.4775,0.0001402323012959725
360.9596,0.00011284222609486524
361.4417,9.044095856690743e-05
361.9239,7.033313544040263e-05
362.406,5.446177673807908e-05
362.8881,4.460681719756714e-05
363.3702,4.1682366473300794e-05
363.8523,4.0137143821965586e-05
364.3344,3.933534258679302e-05
364.8166,3.8345542818177613e-05
365.2987,3.6304275960500955e-05
365.7808,3.116942176338323e-05
366.2629,2.7075415734759346e-05
366.745,2.5305939906564582e-05
367.2271,2.5892249786551247e-05
367.7093,2.6977711967894765e-05
368.1914,2.8470921303738344e-05
368.6735,3.0291009137815618e-05
369.1556,3.250866159982145e-05
369.6377,3.568370915183447e-05
370.1198,3.8374252694287054e-05
370.602,4.031482406181599e-05
371.0841,4.161503572855233e-05
371.5662,4.289409198413085e-05
372.0483,4.5358452518497475e-05
372.5304,4.6381621881334326e-05
373.0125,4.458473566137353e-05
373.4947,3.873512628480301e-05
373.9768,3.359812405946092e-05
374.4589,2.9449845164210968e-05
374.941,2.5719340787722913e-05
375.4231,2.1181599646402e-05
375.9052,1.4832833119652443e-05
376.3874,1.0479613906273542e-05
376.8695,9.550075299672671e-06
377.3516,1.198262756055882e-05
377.8337,1.5149092697318717e-05
378.3158,1.9338542941672744e-05
378.7979,2.350442306142485e-05
379.2801,2.6163745037880358e-05
379.7622,2.7247694386704683e-05
380.2443,2.9648132898313205e-05
380.7264,3.4373213133260916e-05
381.2085,4.045706426037542e-05
381.6906,4.516671554315623e-05
382.1728,4.8446972838763665e-05
382.6549,5.195498416084238e-05
383.137,5.5989640606020984e-05
383.6191,6.0998279961873936e-05
384.1012,6.90477611695276e-05
384.5833,8.100112608824882e-05
385.0655,9.417760640109362e-05
385.5476,0.00010413020182495965
386.0297,0.00011199920987118904
386.5118,0.0001214772995568234
386.9939,0.0001336891066975735
387.476,0.00014899805051559817
387.9582,0.00016790608108265028
388.4403,0.0001905911501726222
388.9224,0.0002168148411990756
389.4045,0.00024623376057544225
389.8866,0.000278740894796278
390.3687,0.00031449315174722736
390.8509,0.0003525713402082149
391.333,0.00039445478733719184
391.8151,0.000444044806969472
392.2972,0.0004994218958698848
392.7793,0.0005535720872948762
393.2614,0.0006214580221825962
393.7436,0.0006749162866829437
394.2257,0.0006949971988463667
394.7078,0.0006749482889093112
395.1899,0.0006286080953646563
395.672,0.0005408570209003854
396.1541,0.0004333362801682268
396.6363,0.0003408477609724571
397.1184,0.00027247602259083324
397.6005,0.00021983522102128977
398.0826,0.0001819509369591565
398.5647,0.00015954836024921094
399.0468,0.00014462145513050443
399.529,0.00014144484625775044
400.0111,0.00014269016925744425
400.4932,0.00014251987862259143
400.9753,0.00014100418529831355
401.4574,0.00013799301823823548
401.9395,0.0001343764272411494
402.4217,0.00012947494685540599
402.9038,0.00011973943320039987
403.3859,0.00010297913992838484
403.868,8.459681866175246e-05
404.3501,6.649960813912193e-05
404.8322,4.7907201954030905e-05
405.3144,3.284974229821129e-05
405.7965,2.1624704412216035e-05
406.2786,1.3758911135089954e-05
406.7607,9.435284283456688e-06
407.2428,9.391339408067422e-06
407.7249,8.785643937017501e-06
408.2071,5.527652432846397e-06
408.6892,2.3217131317207826e-07
409.1713,2.862710671487854e-06
409.6534,3.4952249779982235e-06
410.1355,3.51409174508855e-06
410.6176,4.824185311421417e-06
411.0998,7.132287702315191e-06
411.5819,8.659603653351102e-06
412.064,8.96117614864354e-06
412.5461,8.505454747525203e-06
413.0282,7.896869378457847e-06
413.5103,7.156594847888003e-06
413.9925,6.377878855099676e-06
414.4746,5.174808491855396e-06
414.9567,4.100551938562701e-06
415.4388,4.389730844370974e-06
415.9209,6.3098838217129764e-06
416.403,7.97533301892448e-06
416.8852,7.424351657318722e-06
417.3673,5.624764643405395e-06
417.8494,4.1580056325368155e-06
418.3315,2.933071930096883e-06
418.8136,2.783694265293055e-06
419.2957,5.021396607000385e-06
419.7779,9.203927582107973e-06
420.26,1.2573820204477627e-05
420.7421,1.41888513486937e-05
421.2242,1.4291098461938038e-05
421.7063,1.2853345105331689e-05
422.1884,8.83117922608079e-06
422.6706,5.208250818409491e-06
423.1527,3.251067386102487e-06
423.6348,2.0884361998135712e-06
424.1169,7.491430263313987e-08
424.599,5.0973097670019675e-06
425.0811,9.201154055822785e-06
425.5633,1.039848826243179e-05
426.0454,8.076770378865274e-06
426.5275,7.1212275389296765e-06
427.0096,7.811748305142328e-06
427.4917,9.627283095195487e-06
427.9738,1.2139996084310181e-05
428.456,1.5226630212749558e-05
428.9381,1.9406756172057404e-05
429.4202,2.574930650877617e-05
429.9023,3.294625810364253e-05
430.3844,3.60772104667788e-05
430.8665,3.339247581329414e-05
431.3487,3.155689114353949e-05
431.8308,3.444323982313974e-05
432.3129,4.2296421313783695e-05
432.795,4.943762115126004e-05
433.2771,5.578429298682917e-05
433.7592,6.144359579060064e-05
434.2414,6.630037003587302e-05
434.7235,7.048349741610837e-05
435.2056,7.487269973886207e-05
435.6877,7.879559083286306e-05
436.1698,8.361056823097054e-05
436.6519,9.329056287205113e-05
437.1341,0.0001076296452782518
437.6162,0.0001224598163945291
438.0983,0.00013454497230001852
438.5804,0.0001452298853372621
439.0625,0.00015658088107694678
439.5446,0.0001686940631746187
440.0268,0.00018235644395781086
440.5089,0.00019830727485561382
440.991,0.00021640230340826475
441.4731,0.0002360392089249488
441.9552,0.00025703494836848797
442.4373,0.0002796002515506904
442.9195,0.0003034397282245392
443.4016,0.00032862504398180895
443.8837,0.0003573941242100272
444.3658,0.00038920186432006657
444.8479,0.0004259267949997025
445.33,0.00046863842095649433
445.8122,0.0005190901732660535
446.2943,0.000573966233370927
446.7764,0.0006312128826380882
447.2585,0.0006926193364508138
447.7406,0.0007627754898817594
448.2227,0.0008433794004572765
448.7049,0.0009315469887465433
449.187,0.0010272942558627437
449.6691,0.0011295137308206733
450.1512,0.0012413644212685838
450.6333,0.0013642418182289878
451.1154,0.0014937053703522778
451.5976,0.0016242972433961334
452.0797,0.0017512505602784415
452.5618,0.0018909029424420565
453.0439,0.0020467276012122934
453.526,0.002215758027181324
454.0081,0.002396856686666446
454.4903,0.002589991577441293
454.9724,0.0028005259817157364
455.4545,0.0030297739302997157
455.9366,0.003277821247345763
456.4187,0.0035612513895811014
456.9008,0.003878381815710346
457.383,0.0042312291508768704
457.8651,0.004608813237261079
458.3472,0.005018215779652338
458.8293,0.0054645935004357825
459.3114,0.005956123453330541
459.7935,0.00648367045735533
460.2757,0.007050071073483637
460.7578,0.007650844990024003
461.2399,0.008274980531812685
461.722,0.008943545831208322
462.2041,0.009617895775461004
462.6862,0.01027245282758757
463.1684,0.010920080912823343
463.6505,0.011465864337055461
464.1326,0.01191359487922626
464.6147,0.012208747533956479
465.0968,0.012284602508091939
465.5789,0.01208170839292164
466.0611,0.01169414688514402
466.5432,0.011097809640895519
467.0253,0.010310074838858154
467.5074,0.009490638437428204
467.9895,0.00859634107040906
468.4716,0.00772269483704134
468.9538,0.006915370793409292
469.4359,0.006176332712494557
469.918,0.005519234877547294
470.4001,0.00494725811591555
470.8822,0.004448525722559221
471.3643,0.004003903275403815
471.8465,0.0036168775624767415
472.3286,0.0032742699699834
472.8107,0.0029753846919414032
473.2928,0.0027206270898847405
473.7749,0.0024917350448485456
474.257,0.0022909540463829418
474.7392,0.0021109725555273776
475.2213,0.0019471822516849255
475.7034,0.0017996451997794498
476.1855,0.0016702941403306637
476.6676,0.0015608028867540337
477.1497,0.0014638405048003015
477.6319,0.0013724261451813812
478.114,0.0012864827116246592
478.5961,0.0012071040984132455
479.0782,0.0011351126657883422
479.5603,0.0010698746726914286
480.0424,0.0010120529531140868
480.5246,0.0009608998186766387
481.0067,0.0009126351276099714
481.4888,0.0008643442529035488
481.9709,0.0008180942474513843
