wavelength,intensity
137.656,0.0
138.888,0.0005262252150993651
140.12,0.0012521040775082045
141.352,0.0010914204140344938
142.583,4.622007367286648e-05
143.815,0.00020686098508144356
145.046,0.000660557469570483
146.277,0.0005428692821037998
147.508,0.0007609668792097749
148.739,0.0003487221996995246
149.97,0.00025568542418021256
151.2,0.0007058541965826686
152.431,0.0002671540038576871
153.661,0.001634976289358543
154.891,0.0019311239223994605
156.121,0.002406876777695015
157.35,0.002938935610755411
158.58,0.0041065121107825495
159.809,0.005267411297789876
161.038,0.006143588616333936
162.267,0.008023549706651594
163.496,0.010164440464774896
164.724,0.013118158679701028
165.953,0.015560306759675267
167.181,0.01960921389323178
168.409,0.024250928328492013
169.637,0.02996016430304122
170.865,0.03706263659779064
172.092,0.04566679396954886
173.32,0.054702181341609896
174.547,0.06550812098038895
175.774,0.07700850893134396
177.001,0.0903893670989452
178.228,0.10390065858310511
179.454,0.11894999646177841
180.681,0.13620646970715586
181.907,0.1532798029389117
183.133,0.17249752777840258
184.359,0.18977712990556383
185.585,0.20945355332298968
186.81,0.2238463606789104
188.035,0.2317821370065157
189.261,0.23599571499002203
190.486,0.23172055696486907
191.711,0.22679245654537447
192.935,0.22257863612075932
194.16,0.2224393294596169
195.384,0.2265489971838722
196.608,0.2300005342740565
197.832,0.23308487006078407
199.056,0.2376104212631522
200.28,0.23899029907825506
201.503,0.2404293810121379
202.727,0.2413410080696173
203.95,0.2394898732271413
205.173,0.23427632264609247
206.395,0.23095148527939058
207.618,0.22316931963834954
208.841,0.21338749973155402
210.063,0.20325724346312626
211.285,0.1924380180515825
212.507,0.17895189195452071
213.729,0.16580915944402716
214.95,0.15120179170677847
216.172,0.14036224973031347
217.393,0.13051230387193247
218.614,0.12368860491059969
219.835,0.11732122860433518
221.056,0.11340808364290976
222.277,0.10864697665918766
223.497,0.10439611123314099
224.717,0.09771797391355881
225.937,0.09181269036075308
227.157,0.08388762993015873
228.377,0.07442718995724829
229.597,0.06778076393470304
230.816,0.05935690516677075
232.035,0.05235661210175519
233.254,0.04564387843594083
234.473,0.03969908668003771
235.692,0.03512328713345028
236.911,0.03069360199434163
238.129,0.025528282647486432
239.347,0.022560454360025517
240.565,0.01871578931420448
241.783,0.015405401437589769
243.001,0.012595896891849062
244.218,0.010810507229269706
245.436,0.008720097558830135
246.653,0.0072260784696830125
247.87,0.005960346777446624
249.087,0.005116423824023317
250.304,0.004645986247598082
251.52,0.004401367047831105
252.737,0.004305612022599421
253.953,0.004173860311290851
255.169,0.004690316604350412
256.385,0.004142863730642786
257.6,0.004414966054508445
258.816,0.004299276551543081
260.031,0.003842189722099729
261.246,0.0037197283540821038
262.461,0.0030218485304515687
263.676,0.00274170588965217
264.891,0.002384067433292649
266.105,0.0014252603662675612
267.32,0.0010920362144509605
268.534,6.0562904218609886e-05
269.748,0.0008251900138250631
270.962,0.0016382293641570267
272.175,0.0010983905959137906
273.389,0.0015234014968924982
274.602,0.0012549736104724952
275.815,0.0012289301016781356
277.028,0.0009702570757136247
278.241,0.0007212719964585646
279.454,0.0006299681899852774
280.666,0.00020394412761270625
281.879,0.0004571246017681093
283.091,0.00034192720576547904
284.303,0.0004133147175882491
285.514,0.00022081080404328252
286.726,0.0011545215311980466
287.938,0.002364776394261843
289.149,0.003760981163398753
290.36,0.006015948221349161
291.571,0.009466530093564646
292.782,0.01243929448200165
293.992,0.01793541502423165
295.203,0.02326358691272029
296.413,0.03052322408068964
297.623,0.037866745872319404
298.833,0.046608090969928725
300.043,0.05218923076020853
301.252,0.05624900410426348
302.462,0.05734721383911008
303.671,0.055047368992383564
304.88,0.04934937258764042
306.089,0.041518757515407755
307.298,0.03378101678315149
308.507,0.027270154131028096
309.715,0.0247740047184697
310.923,0.02293306210020957
312.131,0.022790787959894906
313.339,0.024844530837032742
314.547,0.029440826354961924
315.755,0.03712055577869374
316.962,0.04616996594449037
318.169,0.05886717412690363
319.376,0.07300226658412201
320.583,0.08950067497036256
321.79,0.10725313423621533
322.996,0.12265212068206506
324.203,0.1374866557383016
325.409,0.14647908739469745
326.615,0.15075725168960008
327.821,0.14725843858319093
329.027,0.13675666555956895
330.232,0.12075201273560236
331.438,0.10409005357733492
332.643,0.08777759752157857
333.848,0.07576226465543653
335.053,0.06827369519720693
336.258,0.0630250391435973
337.462,0.05921667722941474
338.667,0.05716708009523815
339.871,0.05221905101659648
341.075,0.04706454454319577
342.279,0.04276494360544906
343.482,0.03884221737140207
344.686,0.033835687253196065
345.889,0.02895665691413171
347.092,0.024957474451999324
348.296,0.022602886402895588
349.498,0.018973630282283434
350.701,0.017106285827270074
351.904,0.015472053347233467
353.106,0.013792920773838747
354.308,0.013204070111031382
355.51,0.011936292215836341
356.712,0.010838101876278457
357.914,0.01092791176063904
359.115,0.010717177100008692
360.317,0.011398737242838426
361.518,0.009917809973568939
362.719,0.009833430770046486
363.92,0.011116521245676185
365.12,0.01046016043169981
366.321,0.010982145836687692
367.521,0.011082361293439908
368.721,0.011143863753931737
369.921,0.013435877752842548
371.121,0.013046541576148181
372.321,0.014873175320164269
373.52,0.015599136127667898
374.72,0.015845107179057797
375.919,0.018079109869444148
377.118,0.01852390202537575
378.317,0.020074201393530174
379.515,0.020431695354988823
380.714,0.021768617454426493
381.912,0.02226667392197136
383.111,0.023642328412958123
384.309,0.024213039632001696
385.506,0.024332771598015945
386.704,0.0244524599246306
387.902,0.024009636390502825
389.099,0.023730979428818428
390.296,0.023202457811536084
391.493,0.0226177674381565
392.69,0.02176739555123791
393.886,0.021101230418819842
395.083,0.02016346820980695
396.279,0.01880379058789308
397.475,0.016396699492257843
398.671,0.014770215430059927
399.867,0.013357026206601764
401.063,0.012220142266072199
402.258,0.012130540881065223
403.454,0.009432210130196532
404.649,0.008401786929383034
405.844,0.006629450296103897
407.039,0.007742099823393303
408.233,0.0062653958782398975
409.428,0.006616654254379051
410.622,0.005372572553162532
411.816,0.004559966687533183
413.01,0.005069511469461786
414.204,0.004265628150046468
415.398,0.004268886073667128
416.591,0.0034048579639695134
417.785,0.0034521247674321742
418.978,0.003594038155376879
420.171,0.003664204006452178
421.364,0.003246049824913828
422.556,0.004728851648836906
423.749,0.003936031402100407
424.941,0.004839266603038237
426.133,0.006040362041009864
427.325,0.004907963260993934
428.517,0.006837852673267156
429.709,0.007008516667427584
430.9,0.008202796116065142
432.091,0.008194659792452298
433.282,0.007832714612235253
434.473,0.006733879379327841
435.664,0.006476120841225893
436.855,0.00633528195227559
438.045,0.005144469411494519
439.236,0.004152466822964141
440.426,0.0033253353407394458
441.616,0.00252246736468797
442.806,0.002272345721514644
443.995,0.0016149322282436643
445.185,0.0012387227829466073
446.374,0.0010079678204300466
447.563,0.00048624570648637066
448.752,0.0004542361583973286
449.941,0.0006452153113205465
451.13,0.0004229082092416938
452.318,0.0005602755839544436
453.506,6.2722181710428e-05
454.695,0.0006445049588716304
455.883,0.00023711875069441435
457.07,0.000562273783573545
458.258,0.0006988743170590178
459.445,0.00033639649372583906
460.633,0.00038902328219929123
461.82,0.00015316406155354905
463.007,0.001180830270565483
464.194,6.391542835994188e-05
465.38,0.0008015520057126646
466.567,0.00145903144296525
467.753,0.0005382192616361506
468.939,0.00011047168542079951
470.125,0.0007490387766545954
471.311,0.00026127766777327746
472.497,0.0007291605452581668
473.682,0.0003734255910206321
474.868,6.666184972916108e-05
476.053,0.00030279570766300303
477.238,0.00038281072878513524
478.423,0.0008885941823746724
479.607,0.0004010695505509219
480.792,9.378494878120808e-05
481.976,0.0003417093966732927
483.16,9.355763599755491e-05
484.344,0.0006207059698629586
485.528,0.00014204585776657748
486.712,0.00025544390434758103
487.895,0.00043231225741268683
489.078,0.0006217571945109111
490.262,0.00015773824644235157
491.445,0.0003405634745282253
492.627,0.0005959032746636683
493.81,0.0014449587063612265
494.992,0.0014065938555331407
496.175,0.003312502932848274
497.357,0.0017707956775913165
498.539,0.002900694404892836
499.721,0.003918975185210936
500.902,0.0035940284577325255
502.084,0.004975774039137912
503.265,0.004980336780806378
504.446,0.004461143812510174
505.627,0.0036751516771631886
506.808,0.003756994461804904
507.989,0.003247185903949877
509.169,0.0038282493583411356
510.35,0.004797113852325554
511.53,0.004207063590911624
512.71,0.004397389074117174
513.89,0.004323425625512925
515.069,0.004448178546891355
516.249,0.004748493257711102
517.428,0.004955030777865125
518.607,0.005438012257262004
519.786,0.005800156239188304
520.965,0.0061962371275307414
522.144,0.00694132653852225
523.322,0.007312979060737453
524.501,0.008368223382274515
525.679,0.007459835338009292
526.857,0.007147866967969578
528.035,0.008130689281472427
529.213,0.008720917009778032
530.39,0.008743987705695733
531.567,0.008888298351324698
532.745,0.009580467717077495
533.922,0.010408413801427908
535.098,0.011231719562955027
536.275,0.013039239249949767
537.452,0.01284908299063819
538.628,0.012794679205813349
539.804,0.01197412757528271
540.98,0.012608169260778802
542.156,0.01092451758511521
543.332,0.011107827307512998
544.507,0.009409716444117882
545.683,0.009626967921753988
546.858,0.008467367249325635
548.033,0.007555022566164061
549.208,0.006478104009496247
550.383,0.006594189661233464
551.557,0.006705474979015547
552.731,0.0058518737765271426
553.906,0.004843130629431009
555.08,0.007640759439896047
556.254,0.005791282894604572
557.427,0.0057999768327677585
558.601,0.0047320620540002335
559.774,0.00443210761066823
560.947,0.004224697302522365
562.121,0.004065917286635306
563.293,0.003887893750174775
564.466,0.003932110644488164
565.639,0.0039318832347280674
566.811,0.004149285025851658
567.983,0.004102321273775053
569.155,0.004327071939789955
570.327,0.004367510146980885
571.499,0.004320717073444907
572.671,0.00530667705977843
573.842,0.004682825658969315
575.013,0.005954862759564547
576.184,0.005335721504618075
577.355,0.005996562630285906
578.526,0.005454745542594494
579.697,0.00527161522661725
580.867,0.006470278010502727
582.037,0.0045558379154495504
583.207,0.0046341386354910395
584.377,0.0032430949526792243
585.547,0.004281169110005657
586.717,0.002060682996319636
587.886,0.0024099213531398917
589.055,0.0022886726755487093
590.224,0.0017599328612684024
591.393,0.0008771160505175093
592.562,0.0007947903231869742
593.731,0.0008391778960409906
594.899,0.0011792107639583976
596.067,0.001154445889572087
597.235,0.0011936626784566549
598.403,0.001164958136051611
599.571,5.3649550535226186e-05
600.739,0.0009962908868636306
601.906,0.00030913137267223056
603.074,0.0003467854831456263
604.241,0.0008772295129564488
605.408,0.0001779858611122165
606.574,0.0004940304904913872
607.741,0.0009285591445211362
608.908,0.0008533359719153276
610.074,0.0024329532584801777
611.24,0.0023295370942089883
612.406,0.0026638502914865213
613.572,0.001969777278147072
614.737,0.0018845820178522467
615.903,0.0028610038860815853
617.068,0.002886043688685326
618.233,0.003945946758569955
619.398,0.0037745806549583103
620.563,0.003908482334020119
621.728,0.003491019594524196
622.892,0.0036834189189748068
624.057,0.004702893479312861
625.221,0.005202078267778295
626.385,0.004883122744981664
627.549,0.006719555958617271
628.712,0.006430769807405326
629.876,0.00658583514062266
631.039,0.007249187956178128
632.202,0.008444989934979231
633.365,0.009015987234531241
634.528,0.009364990908358135
635.691,0.009893691932061027
636.853,0.01145957541469202
638.016,0.012316255619262756
639.178,0.013509754407529832
640.34,0.015085054302828367
641.502,0.01648085080113798
642.664,0.01805112246783907
643.825,0.019970402657189232
644.987,0.02115257944567324
646.148,0.02478331445704935
647.309,0.026755650458659172
648.47,0.028548483063280075
649.63,0.03307595439923031
650.791,0.035852908801697475
651.951,0.04065657874648841
653.112,0.04517891033093114
654.272,0.052187533672446614
655.432,0.05936393595892726
656.591,0.0682840716766655
657.751,0.08046135520351606
658.91,0.0933153403533751
660.069,0.11013154054508982
661.229,0.13097987579445114
662.388,0.15791988332109833
663.546,0.1905731610423459
664.705,0.22936296264601563
665.863,0.27672373628246494
667.022,0.3338786943222608
668.18,0.39315830926353174
669.338,0.4598060974083798
670.495,0.5185214064247029
671.653,0.5656451696331452
672.81,0.59604146609571
673.968,0.5936762106378171
675.125,0.5622398418183067
676.282,0.5096543653098017
677.439,0.43840300841375907
678.595,0.3700205056469025
679.752,0.3053798389539613
680.908,0.25157803540238044
682.064,0.20726877102652105
683.22,0.17105975502650753
684.376,0.14203843906864683
685.532,0.12086848144429156
686.687,0.10107539536528946
687.842,0.08682703442201865
688.998,0.07645045798700428
690.153,0.0665666673498285
691.307,0.05909254738168604
692.462,0.05288964312366206
693.617,0.0477894143657096
694.771,0.04220452643588705
695.925,0.03837525640047767
697.079,0.035342012653028165
698.233,0.032217712873918614
699.387,0.029358503052042483
700.54,0.026384788294458804
701.694,0.024394535894905325
702.847,0.021950705273635705
704.0,0.0197535342365051
705.153,0.018546395711454396
706.305,0.017504752336123548
707.458,0.016587520040207655
708.61,0.01540112962525192
709.763,0.015051578034519035
710.915,0.014562472492712726
712.066,0.014372970824395034
713.218,0.014361338499992646
714.37,0.014054010452776225
715.521,0.014165523665200625
716.672,0.012661734199367041
717.824,0.013126081655138086
718.974,0.013079489322840232
720.125,0.012692407848458126
721.276,0.013019276649047461
722.426,0.011873204190492665
723.577,0.013248281671640378
724.727,0.012679272389180898
725.877,0.012725782291501744
727.026,0.013456606467648806
728.176,0.014990817443820272
729.325,0.016949833730910146
730.475,0.01758855452980695
731.624,0.018376619051752342
732.773,0.02036034493665571
733.922,0.02284588027746887
735.07,0.02265990855169596
736.219,0.023205944114681274
737.367,0.02445346363082122
738.515,0.022922389842598208
739.663,0.021866747917642645
740.811,0.02079831964860658
741.959,0.01931688325300852
743.106,0.017937213937259285
744.254,0.01648080716173839
745.401,0.014764236832315805
746.548,0.013165686834679023
747.695,0.011709857068997182
748.841,0.009536939840395444
749.988,0.009145693227763376
751.134,0.007741003989581324
752.28,0.007257663697343353
753.426,0.006687030059454611
754.572,0.006082343143417484
755.718,0.005715083654094553
756.864,0.005080930445688392
758.009,0.0045649105466247526
759.154,0.002993209932028131
760.299,0.00377958124526935
761.444,0.002490646969152049
762.589,0.002728939910624822
763.734,0.0029767127843356566
764.878,0.002475863395216892
766.022,0.0021871315508133283
767.166,0.002347511678018765
768.31,0.0017418162069688427
769.454,0.0017081396823036034
770.598,0.002324157810885933
771.741,0.002198107344692964
772.884,0.0015772690019845762
774.028,0.003341823275669784
775.17,0.0020562511728499473
776.313,0.0031851743171294735
777.456,0.0035671800444568
778.598,0.004181701826515337
779.741,0.004204449590876056
780.883,0.004156349759763403
782.025,0.004753597612816727
783.167,0.0035441195310656703
784.308,0.003473896948770901
785.45,0.0030446438132696214
786.591,0.0030079459875059548
787.732,0.0019576266146539728
788.873,0.002739954010199655
790.014,0.002052870089145993
791.155,0.0007788895806222588
792.295,0.0012114481582015321
793.436,0.00044606322617705106
794.576,0.0007517851495355928
795.716,0.0002717045264942663
796.856,2.4405106327250973e-05
797.996,0.0004047914094774686
799.135,0.00022607633399806775
800.275,0.0007533668353296984
801.414,0.0007075871656286934
802.553,0.00014246256554446046
803.692,0.0007560656897533621
804.831,0.0007740029376323767
805.969,0.0006666466204602368
807.108,0.00021087639170257985
808.246,6.501397751234086e-05
809.384,0.0001879297286561641
810.522,0.0009213615528817423
811.66,0.00021602826526553848
812.797,0.0002906073203333674
813.935,9.950500732685614e-05
815.072,7.849976419185026e-05
816.209,0.00012152360580861282
817.346,0.00040121162104070514
818.483,0.0008469054639443198
819.62,0.00020006128778988648
820.756,0.000464871371007259
821.893,0.0010285467066310375
823.029,0.00010449589999354163
824.165,0.0012318849739127399
825.301,0.0009686186587000494
826.436,0.0004055584931458545
827.572,0.0003327504218899174
828.707,0.0002749907187482183
829.842,0.00039223373585084
830.977,0.0003257328670179521
832.112,0.0007924982849439525
833.247,0.0005914806639561157
834.382,0.00023048003429913038
835.516,0.00106269696122296
836.65,9.68533319429736e-05
837.784,0.0002465701718580758
838.918,2.0313912615489696e-05
840.052,5.7342995363816164e-05
841.186,0.0007753378183776779
842.319,0.00036795175566512714
843.452,0.0007776109462142097
844.585,0.00010782001003691697
845.718,0.0004616135443630419
846.851,9.571686500115125e-05
847.984,0.00042832526488950716
849.116,0.00034440844504984354
850.249,0.0005585426149084187
851.381,6.00136296424104e-05
852.513,0.0014377611147218328
853.645,0.00018731417068080632
854.776,0.0005513358105068888
855.908,0.0007454685888857423
857.039,0.00039151397668690064
858.17,0.001351429290508741
859.301,0.00144810268266073
860.432,0.0010742885555190627
861.563,0.0010737013631534399
862.693,0.0008547755872196499
863.824,0.0012030097529670692
864.954,0.0003776967245233782
866.084,0.00025529237865455287
867.214,0.00042445188026993236
868.344,0.00097495412975639
869.473,0.000701810278887132
870.603,0.000656418999842497
871.732,0.0006690618187865518
872.861,0.0018210260811685002
873.99,0.002027347343853433
875.119,0.002141474556313399
876.247,0.002313655262050763
877.376,0.0017196178141607665
878.504,0.002235837484698094
879.632,0.0018645995367790147
880.76,0.0023223962337890645
881.888,0.0029449302096127153
883.015,0.003004877652832411
884.143,0.0035967180993940525
885.27,0.003134100703375727
886.397,0.004168282226258543
887.524,0.004882327538144652
888.651,0.004553744678915782
889.778,0.005568169190956592
890.904,0.005210248533146375
892.031,0.006476557235221814
893.157,0.007500313305542073
894.283,0.0079130014098404
895.409,0.008058883073854682
896.535,0.009237452338639075
897.66,0.00889829662265347
898.786,0.009349513467969464
899.911,0.009577747527836253
901.036,0.00909800991047572
902.161,0.010111622244801898
903.286,0.009112876399270104
904.41,0.01039783367143791
905.535,0.009840136691117142
906.659,0.009243542459293265
907.783,0.010794879475393551
908.907,0.012200291188079963
910.031,0.011588874106861295
911.154,0.014570322735817131
912.278,0.014923690349603237
913.401,0.017881064576450754
914.524,0.019432280371996617
915.647,0.021933797430704845
916.77,0.025453581693029078
917.893,0.02951642919034419
919.015,0.032633804851385124
920.138,0.03765184122461692
921.26,0.04144790167693669
922.382,0.04446807299979727
923.504,0.04907880831016927
924.626,0.050770562367690474
925.747,0.051191925014863277
926.869,0.05078525429888648
927.99,0.04837789166920933
929.111,0.044508041841001475
930.232,0.039819807805776035
931.353,0.03571537196064964
932.473,0.030388116499552437
933.594,0.027889697838215252
934.714,0.024012618416141617
935.834,0.02017760737527479
936.954,0.018439324020144043
938.074,0.016067595384644955
939.193,0.015189599757784557
940.313,0.013656004582029558
941.432,0.01156197769024602
942.551,0.010980376016593123
943.67,0.010634320426649786
944.789,0.009123606842747588
945.908,0.009215763557041791
947.026,0.008423417525114194
948.145,0.006771132880112981
