wavelength,intensity
206.0,0.0
207.0,0.0001376435151357244
208.0,0.00025658027431295984
209.0,0.00032421649485856943
210.0,0.00039400559245072363
211.0,0.00039798647545796035
212.0,0.0004051190928801836
213.0,0.00038750817073367465
214.0,0.000360800858183297
215.0,0.0003348742060034006
216.0,0.00031822335064791827
217.0,0.00029218517555795314
218.0,0.0002469311181809244
219.0,0.00019251763571172722
220.0,0.00014170197929779159
221.0,0.00010283866954991998
222.0,6.480935721647557e-05
223.0,3.571642415506203e-05
224.0,1.0080701305779794e-05
225.0,5.614936080852814e-06
226.0,1.8333396650867437e-05
227.0,1.6442356001875555e-05
228.0,8.233300056380032e-06
229.0,3.1410670061972825e-05
230.0,6.138608875958258e-05
231.0,8.966441969527655e-05
232.0,0.00015442528868998308
233.0,0.0002385911440366525
234.0,0.000306431015113692
235.0,0.00033401111565591204
236.0,0.0003619354825726921
237.0,0.00037880453492613507
238.0,0.00039567358727957803
239.0,0.00039486383397603533
240.0,0.00036470900885788015
241.0,0.0003356548663738819
242.0,0.00030592673760729413
243.0,0.00027312445558055036
244.0,0.00024629107365357325
245.0,0.00021535073934275995
246.0,0.00019019020106681412
247.0,0.0001774087058084998
248.0,0.00016698858695033685
249.0,0.00016510239512352185
250.0,0.00016038933996757288
251.0,0.0001482042498370175
252.0,0.0001329692505571906
253.0,0.00011979984952472408
254.0,0.00011015554221486549
255.0,0.00010057911841548351
256.0,9.373258150169753e-05
257.0,8.668239405648165e-05
258.0,8.122262028528971e-05
259.0,7.655320452893284e-05
260.0,7.056490914045855e-05
261.0,6.280194483523804e-05
262.0,5.4801388243349314e-05
263.0,4.448794347307822e-05
264.0,3.379144175083183e-05
265.0,2.5184782386830325e-05
266.0,1.7494550414263347e-05
267.0,1.0778931699253717e-05
268.0,8.664845230124334e-06
269.0,6.604095804940875e-06
270.0,6.526514650110439e-06
271.0,2.100994649251748e-05
272.0,2.2018501505313153e-05
273.0,1.1743847312457269e-05
274.0,5.105809752278077e-06
275.0,1.3426388607842352e-05
276.0,2.1756665107760428e-05
277.0,2.4855062478800974e-05
278.0,2.70612765692915e-05
279.0,2.62030350439798e-05
280.0,2.2343372591165602e-05
281.0,1.8231571385152485e-05
282.0,1.2466321816815704e-05
283.0,6.783502225486258e-06
284.0,2.1722723352522113e-06
285.0,1.1806882000756998e-05
286.0,1.643265835752175e-05
287.0,1.5516230966087224e-05
288.0,1.3673678538864366e-05
289.0,6.347108229565055e-06
290.0,1.0909849898030079e-06
291.0,2.100024884816368e-05
292.0,5.065079645992098e-05
293.0,7.165589413026156e-05
294.0,8.237663996339246e-05
295.0,9.297131641992389e-05
296.0,0.00010342537703332514
297.0,0.00011374851944795005
298.0,0.00011095074905187746
299.0,0.00010444847851265153
300.0,0.00010067124603684466
301.0,0.00010026394497398488
302.0,9.859110132295359e-05
303.0,8.767155378056971e-05
304.0,7.670351801641682e-05
305.0,6.0818776564885014e-05
306.0,4.353757432640536e-05
307.0,3.9362738432092525e-05
308.0,5.114537632196501e-05
309.0,6.163822751278149e-05
310.0,6.295225832272201e-05
311.0,6.42274985552473e-05
312.0,7.207774165965206e-05
313.0,8.162992134814951e-05
314.0,9.849897370159246e-05
315.0,0.00011189142055419649
316.0,0.00012473595050081058
317.0,0.0001354906380891798
318.0,0.00014592530341387344
319.0,0.0001611069656497544
320.0,0.00017708868354482423
321.0,0.00018863857797020545
322.0,0.00019558694014970638
323.0,0.00020565309498895543
324.0,0.00023265618569212412
325.0,0.0002592471265102561
326.0,0.00027846785761949665
327.0,0.0002961418144543054
328.0,0.00032565659504510945
329.0,0.0003656545291823761
330.0,0.0004043772230871176
331.0,0.00043939541684870565
332.0,0.0004738802401708345
333.0,0.0005281143162194862
334.0,0.0005836236325006633
335.0,0.0006592846537490461
336.0,0.0007511601363569901
337.0,0.0008452078913001864
338.0,0.0009454960803850557
339.0,0.0010457357812481561
340.0,0.0011184826603682207
341.0,0.001189702160502561
342.0,0.0012081907194630892
343.0,0.0011953801312717136
344.0,0.001168420679968137
345.0,0.0011111609388810982
346.0,0.0010534696526203152
347.0,0.0009601249768927698
348.0,0.000866600894744679
349.0,0.0007887336594058057
350.0,0.0007174268804722811
351.0,0.0006506149596967449
352.0,0.0005911635509857463
353.0,0.0005336662176120394
354.0,0.0005010239467171334
355.0,0.0004682313623347434
356.0,0.00044502005057391226
357.0,0.00042455802098738475
358.0,0.0004040135614238499
359.0,0.0003833090907284773
360.0,0.00036421927781801305
361.0,0.0003537458219159042
362.0,0.00034315599428154966
363.0,0.00032880832946009586
364.0,0.00031379637600040646
365.0,0.00029869714374153284
366.0,0.0002835009350391212
367.0,0.0002715776813061185
368.0,0.0002688720385314071
369.0,0.00026605487284662684
370.0,0.0002712673566867968
371.0,0.0002766059099035662
372.0,0.0002803443518019578
373.0,0.0002831809127754456
374.0,0.00028817035079547803
375.0,0.0002969079283582559
376.0,0.00030445269566551584
377.0,0.00029825105210125785
378.0,0.0002912299575891034
379.0,0.00028983349680215554
380.0,0.0002902407978650153
381.0,0.00029243246548897513
382.0,0.0002961854538538975
383.0,0.0002972958341324081
384.0,0.0002893583122288191
385.0,0.00028123653508250785
386.0,0.00027875393812793386
387.0,0.0002769356298115955
388.0,0.00027803631244575233
389.0,0.00028106682630631624
390.0,0.00028943104456147266
391.0,0.00030816689345302295
392.0,0.0003268978935223964
393.0,0.00033183399449848293
394.0,0.00033689616485116884
395.0,0.00035803702954246273
396.0,0.0003842934016303884
397.0,0.0003923036558666309
398.0,0.00037981308993893076
399.0,0.00037288897187031435
400.0,0.00038703298616033817
401.0,0.0004014582321366224
402.0,0.00040268013532520177
403.0,0.00040263164710343277
404.0,0.00040525001107895997
405.0,0.0004094393934398035
406.0,0.00041282387131928125
407.0,0.00041476824901221914
408.0,0.00041595136162338327
409.0,0.00040722348170495914
410.0,0.0003984907529643583
411.0,0.0003930891650592891
412.0,0.00038850217927993957
413.0,0.00039257518990853745
414.0,0.0004047699776834466
415.0,0.0004138566704429615
416.0,0.0004133766370474482
417.0,0.00041301297538418047
418.0,0.0003920563659356089
419.0,0.0003704257702044479
420.0,0.00035924923508668825
421.0,0.0003526936275035164
422.0,0.0003409449313688822
423.0,0.00032227696598780854
424.0,0.00030635828278103845
425.0,0.00030274106143706933
426.0,0.0002984110632330956
427.0,0.0002865266000775082
428.0,0.0002736820701308941
429.0,0.00026879930619875354
430.0,0.0002687847597322228
431.0,0.0002717764830153715
432.0,0.00028043163060114204
433.0,0.0002884661289482691
434.0,0.00028871341887929113
435.0,0.00028902374349861284
436.0,0.00031570681193810596
437.0,0.0003481890717011742
438.0,0.0003556271649205423
439.0,0.00034305901783801166
440.0,0.00033425840558693403
441.0,0.00033451539316230986
442.0,0.0003348402642481623
443.0,0.0003372258847591982
444.0,0.00033961150527023415
445.0,0.00032535111924796457
446.0,0.00030623221340443895
447.0,0.0002948568765774263
448.0,0.00029074022654923624
449.0,0.0002860611131485256
450.0,0.00027976734196290644
451.0,0.0002734687219551104
452.0,0.0002714419142851653
453.0,0.0002694054089708663
454.0,0.0002609296678056412
455.0,0.00025027195666081
456.0,0.0002481093819699116
457.0,0.0002546504430865528
458.0,0.00025703606359758866
459.0,0.0002463444106975192
460.0,0.0002356479089752728
461.0,0.0002292135219465235
462.0,0.00022282762313954323
463.0,0.00021644172433256295
464.0,0.0002100558255255827
465.0,0.00021002673259252127
466.0,0.00021658718899787003
467.0,0.00022105780304497392
468.0,0.00021900190244196734
469.0,0.0002169460018389608
470.0,0.00019768163133012813
471.0,0.00017837362142170333
472.0,0.00017041670422940675
473.0,0.0001662321706907401
474.0,0.00016424900242038707
475.0,0.00016439931590787104
476.0,0.00016342470265031368
477.0,0.00015926926204470846
478.0,0.0001548907756189657
479.0,0.00013993215920322225
480.0,0.0001249832404318326
481.0,0.00012189938952732276
482.0,0.00012213213299181404
483.0,0.00012473110167863366
484.0,0.000129327785102337
485.0,0.00013460330363080668
486.0,0.00014140620114500054
487.0,0.00014750601944354358
488.0,0.000143515438791953
489.0,0.00013955395107342387
490.0,0.00013741077167123307
491.0,0.00013565064922101754
492.0,0.00012874107761893182
493.0,0.0001183549005160072
494.0,0.00011113500429459975
495.0,0.00010947670711009916
496.0,0.00010642679796082765
497.0,9.395562732183504e-05
498.0,8.150870079372694e-05
499.0,7.101100078073355e-05
500.0,6.075574187658528e-05
501.0,4.760573613282636e-05
502.0,3.302047902470437e-05
503.0,2.5136294165061302e-05
504.0,2.5805431625473814e-05
505.0,2.418107619621156e-05
506.0,1.3988851980363011e-05
507.0,3.816023053222077e-06
508.0,4.208777649551159e-06
509.0,1.219963659708608e-05
510.0,1.1855370222526019e-05
511.0,8.931530449853958e-06
512.0,6.002841855004994e-06
513.0,3.0596067936253245e-06
514.0,3.9275459632908285e-07
515.0,5.673121946975642e-07
516.0,1.3431237430019255e-06
517.0,2.1334817578369933e-06
518.0,3.20022263675549e-06
519.0,1.0211619504556154e-05
520.0,1.8139443763791346e-05
521.0,1.7732142700931555e-05
522.0,1.3188796321174142e-05
523.0,9.949783107003432e-06
524.0,7.612650817736545e-06
525.0,8.228451234203131e-06
526.0,2.0937214159863945e-05
527.0,3.37235582403552e-05
528.0,1.338274920825023e-05
529.0,7.4283955750142586e-06
530.0,1.95407533729161e-05
531.0,2.8835945486037726e-05
532.0,2.064143600707291e-05
533.0,3.20022263675549e-07
534.0,1.0837117565376545e-05
535.0,2.972327994441084e-06
536.0,1.0570432345646922e-06
537.0,1.741212043725601e-05
538.0,3.5886132931253605e-05
539.0,3.3830232328247054e-05
540.0,3.037787093829264e-05
541.0,3.171129703694076e-05
542.0,3.4848484985396524e-05
543.0,3.3432628909741065e-05
544.0,2.779829754018064e-05
545.0,2.6275767376633332e-05
546.0,3.383992997260085e-05
547.0,4.163683603305968e-05
548.0,5.1412061541694634e-05
549.0,6.119213587250649e-05
550.0,7.098190784767215e-05
551.0,8.07765286450147e-05
552.0,7.364876004496839e-05
553.0,5.924290935739178e-05
554.0,4.7028726293775e-05
555.0,3.7045001431533245e-05
556.0,3.163856470428723e-05
557.0,3.709348965330227e-05
558.0,4.213626471728061e-05
559.0,4.319815677402221e-05
560.0,4.42648976529407e-05
561.0,3.147370475027255e-05
562.0,1.7111493462288066e-05
563.0,1.6660552999836156e-05
564.0,2.216881499279712e-05
565.0,2.6571545529424372e-05
566.0,2.9892988720602418e-05
567.0,3.2530747984837244e-05
568.0,3.365082590770167e-05
569.0,3.579400530989246e-05
570.0,4.576803252778041e-05
571.0,5.5756606212199064e-05
572.0,5.7584612172891205e-05
573.0,5.873863185099395e-05
574.0,5.989750035127358e-05
575.0,6.106606649590702e-05
576.0,6.941088946235581e-05
577.0,8.387492601605524e-05
578.0,8.97953378940529e-05
579.0,7.99037406531723e-05
580.0,7.037580507555936e-05
581.0,6.27049683917e-05
582.0,5.5043829352194425e-05
583.0,6.0372684924610006e-05
584.0,6.602641158287804e-05
585.0,5.940776931140646e-05
586.0,4.953071853705656e-05
587.0,4.63935305886008e-05
588.0,4.7629980243710876e-05
589.0,4.512798800042931e-05
590.0,3.748624424963135e-05
591.0,3.465453209832043e-05
592.0,4.70384239381288e-05
593.0,5.8762875961878456e-05
594.0,6.003326737222685e-05
595.0,6.131335642692904e-05
596.0,5.868044598487112e-05
597.0,5.551901392553084e-05
598.0,5.8588318363509975e-05
599.0,6.433902146531605e-05
600.0,5.844770252037981e-05
601.0,4.192776536367382e-05
602.0,3.621100401710606e-05
603.0,5.0898086390942996e-05
604.0,6.139578640393639e-05
605.0,5.156237502917861e-05
606.0,4.173381247659773e-05
607.0,3.857722923943436e-05
608.0,3.54448901131555e-05
609.0,3.047484738183069e-05
610.0,2.5112050054176793e-05
611.0,1.683995942038154e-05
612.0,7.011396867800664e-06
613.0,5.789493679221295e-06
614.0,1.3843387315055944e-05
615.0,1.700481937439622e-05
616.0,9.32428504618304e-06
617.0,3.3796290573008734e-06
618.0,8.941228094207763e-06
619.0,1.4590105930298893e-05
620.0,5.018530953093836e-06
621.0,4.868217465609867e-06
622.0,2.0849935360679704e-07
623.0,7.864789570935463e-06
624.0,5.837981900990318e-06
625.0,1.755273628038617e-06
626.0,6.114364765073746e-06
627.0,6.992001579093055e-06
628.0,1.0017666617480064e-05
629.0,1.763031743521661e-05
630.0,2.3138579428177572e-05
631.0,1.7315143993717963e-05
632.0,1.1496557381435252e-05
633.0,1.2403287128515974e-05
634.0,1.333910980865811e-05
635.0,6.7495604702479415e-06
636.0,1.2946355212329028e-06
637.0,1.561320740962527e-06
638.0,9.915841351765115e-06
639.0,1.0492851190816486e-05
640.0,3.195373814578588e-06
641.0,3.15658323716337e-06
642.0,6.686525781948213e-06
643.0,1.2621484126476577e-05
644.0,2.7376450010790144e-05
645.0,4.177260305401295e-05
646.0,4.981195022331689e-05
647.0,5.7860995036974635e-05
648.0,7.8182408780372e-05
649.0,9.975966746758705e-05
650.0,0.00011452433099625442
651.0,0.00012709732690096198
652.0,0.00015063350974764552
653.0,0.0001812635194391371
654.0,0.0002098327797054452
655.0,0.00023598732652765596
656.0,0.0002678392394077269
657.0,0.00031229324112556683
658.0,0.00035770730963443335
659.0,0.000408770255979391
660.0,0.00045990108583482533
661.0,0.0004918014869366653
662.0,0.0005237649227268049
663.0,0.0005261117526604256
664.0,0.0005234982375070753
665.0,0.000495588417056826
666.0,0.00045855311326964643
667.0,0.00042686121152141335
668.0,0.00039881562405021066
669.0,0.0003778735610681698
670.0,0.0003656642268267299
671.0,0.0003576685190570181
672.0,0.0003590358869109046
673.0,0.0003638507673325685
674.0,0.0003855977347959751
675.0,0.00040792656092061006
676.0,0.000445626153346025
677.0,0.00048340817574844743
678.0,0.0005313727247223646
679.0,0.0005804379563304385
680.0,0.000641634941025122
681.0,0.000706618855839966
682.0,0.0007501564301663714
683.0,0.0007810385786110618
684.0,0.0007870996063321896
685.0,0.000767937061089072
686.0,0.0007346547456668148
687.0,0.0006768131459185478
688.0,0.0006141518169264399
689.0,0.0005357512111481074
690.0,0.0004602550498537392
691.0,0.0004091872546866046
692.0,0.00035810976187511623
693.0,0.00031817971124832616
694.0,0.0002785454387743271
695.0,0.00025052409541400896
696.0,0.00022455380383452043
697.0,0.00020520215452650352
698.0,0.00018839128803918343
699.0,0.00017700140474564
700.0,0.0001692190451517119
701.0,0.00015923532028947016
702.0,0.00014685627727183866
703.0,0.00013690649416483523
704.0,0.00013137883688316666
705.0,0.00012584633077932118
706.0,0.000120299278208945
707.0,0.00011476192328292263
708.0,0.00010920517306819264
709.0,0.00010365812049781647
710.0,9.81498585048555e-05
711.0,9.265129415624834e-05
712.0,9.512904228864538e-05
713.0,9.872686834390687e-05
714.0,9.888203065356774e-05
715.0,9.794620797342559e-05
716.0,9.842624136893892e-05
717.0,9.970633042364111e-05
718.0,9.614729494579486e-05
719.0,8.82922030192132e-05
720.0,8.329791617700388e-05
721.0,8.231845409726963e-05
722.0,8.620720948314524e-05
723.0,0.00010127249998678055
724.0,0.00011281754558998483
725.0,0.00010952034650969128
726.0,0.00010587888105483768
727.0,9.800439383954842e-05
728.0,9.012505780208226e-05
729.0,9.081359055120238e-05
730.0,9.196276140712822e-05
731.0,8.133899201753536e-05
732.0,6.885812373418896e-05
733.0,6.134244935999046e-05
734.0,5.5237782239270516e-05
735.0,5.3608577987831355e-05
736.0,5.418558782688273e-05
737.0,5.050048297243701e-05
738.0,4.338241201674449e-05
739.0,3.559035477846257e-05
740.0,2.6813986638269486e-05
741.0,2.3511938735799047e-05
742.0,3.067364909108368e-05
743.0,3.821356757616669e-05
744.0,4.615593830193259e-05
745.0,5.225090777829873e-05
746.0,4.802758366221686e-05
747.0,4.3479388460282545e-05
748.0,3.2744096160620946e-05
749.0,2.2275489080688972e-05
750.0,2.9456594724681215e-05
751.0,3.754443011575418e-05
752.0,3.970215598447569e-05
753.0,4.087072212910913e-05
754.0,3.677346738962672e-05
755.0,3.103246193217445e-05
756.0,2.5310851763429783e-05
757.0,1.9628032172100337e-05
758.0,1.9303161086247885e-05
759.0,2.290098714150936e-05
760.0,2.311918413946996e-05
761.0,1.972015979346148e-05
762.0,1.4483431842407044e-05
763.0,6.376201162626468e-06
764.0,2.4583528436894444e-06
765.0,8.320578855564274e-06
766.0,1.0391025925101537e-05
767.0,2.017110025591339e-06
768.0,1.2791192902668155e-05
769.0,1.3634887961449146e-05
770.0,1.4139165467846982e-05
771.0,3.5493378334924522e-06
772.0,6.992001579093055e-06
773.0,6.531363472287341e-06
774.0,5.75555192398298e-06
775.0,9.047902182099613e-06
776.0,1.291241345709071e-05
777.0,1.2766948791783644e-05
778.0,1.1525650314496664e-05
779.0,1.861947715930467e-05
780.0,2.9286885948489634e-05
781.0,2.8060133937733363e-05
782.0,1.9792892126115013e-05
783.0,1.2854227590967884e-05
784.0,7.064733911746589e-06
785.0,8.795763428900695e-06
786.0,1.9109208199171797e-05
787.0,2.5747245759350986e-05
788.0,2.6746103127792853e-05
789.0,2.774496049623472e-05
790.0,2.8734120220322778e-05
791.0,3.0300289783462205e-05
792.0,3.3655674729878566e-05
793.0,3.7011059676294934e-05
794.0,4.03712934448882e-05
795.0,4.25193216692559e-05
796.0,3.409691754797667e-05
797.0,2.5926652179896373e-05
798.0,2.687217250439231e-05
799.0,2.796800631637222e-05
800.0,2.2770068942733e-05
801.0,1.74024227929022e-05
802.0,1.830430371780602e-05
803.0,2.0311716099043557e-05
804.0,1.883767415726527e-05
805.0,1.6616913600244036e-05
806.0,2.6818835460446386e-05
807.0,4.0264619356996346e-05
808.0,4.653899525390787e-05
809.0,4.9724671424132655e-05
810.0,5.2861859372588405e-05
811.0,5.598934967669037e-05
812.0,5.648392953873439e-05
813.0,5.486442293164904e-05
814.0,5.318673045844086e-05
815.0,5.1484793874348174e-05
816.0,4.5656509617711655e-05
817.0,3.447997449995195e-05
818.0,3.1270054218842656e-05
819.0,4.12343837923768e-05
820.0,4.517162740002143e-05
821.0,3.6283736349759594e-05
822.0,3.293320022552013e-05
823.0,4.525890619920567e-05
824.0,5.322067221367918e-05
825.0,4.427944411947141e-05
826.0,3.67249791678577e-05
827.0,3.718561727466341e-05
828.0,3.7859603557252826e-05
829.0,4.0657373953325425e-05
830.0,4.3047843286538245e-05
831.0,3.6371015148943834e-05
832.0,2.968448936699562e-05
833.0,3.000936045284807e-05
834.0,3.038756858264645e-05
835.0,3.076092789026792e-05
836.0,3.111974073135869e-05
837.0,2.726007827854449e-05
838.0,2.2871894208447948e-05
839.0,2.4438063771587378e-05
840.0,2.712431125759123e-05
841.0,2.7919518094603197e-05
842.0,2.824438918045565e-05
843.0,2.678489370520807e-05
844.0,2.4709597813493905e-05
845.0,2.0946911804217754e-05
846.0,1.6471448934936967e-05
847.0,2.4486551993356398e-05
848.0,3.8979681480117245e-05
849.0,4.3251493817968135e-05
850.0,4.1122860882308044e-05
851.0,4.3076936219599654e-05
852.0,4.806637423963208e-05
853.0,4.9288277428211446e-05
854.0,4.720813271432038e-05
855.0,4.7469969111873096e-05
856.0,5.014167013134624e-05
857.0,5.165450265053975e-05
858.0,5.182421142673133e-05
859.0,5.00398448656313e-05
860.0,4.55304402411122e-05
861.0,4.098224503917788e-05
862.0,3.640010808200524e-05
863.0,3.0174220406862747e-05
864.0,2.0811144783264487e-05
865.0,1.5142871658465752e-05
866.0,1.7664259190454922e-05
867.0,2.014200732285198e-05
868.0,2.2595511344364522e-05
869.0,2.625152326574882e-05
870.0,3.3500512420217695e-05
871.0,3.601705113002997e-05
872.0,2.1528770465446025e-05
873.0,8.907286338969447e-06
874.0,4.053615339890287e-06
875.0,2.715340419065264e-07
876.0,3.8111742310451746e-06
877.0,6.972606290385446e-06
878.0,8.010254236242528e-06
879.0,8.965472205092273e-06
880.0,3.956638896352242e-06
881.0,6.933815712970228e-07
882.0,9.79462079734256e-07
883.0,6.788351047663161e-07
884.0,8.684240518831943e-06
885.0,1.7475155125555736e-05
886.0,1.0027364261833869e-05
887.0,2.7444333521266774e-06
888.0,9.726737286865928e-06
889.0,1.6704192399428276e-05
890.0,1.172445202374966e-05
891.0,6.5895493384101675e-06
892.0,1.769820094569324e-05
893.0,2.9311130059374147e-05
894.0,2.4952038922339016e-05
895.0,1.982198505917643e-05
896.0,1.916739406529462e-05
897.0,1.8823127690734565e-05
898.0,1.625810075915327e-05
899.0,1.3489423296142081e-05
900.0,1.28881693462062e-05
901.0,1.2509961216407825e-05
902.0,1.6403565424460337e-05
903.0,2.0811144783264487e-05
904.0,1.8866767090326682e-05
905.0,1.5991415539423644e-05
906.0,6.836839269432183e-06
907.0,3.292350258116633e-06
908.0,5.227030306700634e-06
909.0,5.8088889679289045e-06
910.0,1.0497700012993388e-05
