wavelength,intensity
118.134,0.0
119.365,4.1148705104510935e-06
120.596,9.477459338751383e-05
121.827,5.32281393998316e-05
123.058,0.0010520785255377619
124.288,0.0008053544520637913
125.519,0.0014272818402331117
126.749,0.002140572675388495
127.979,0.003897297555904659
129.209,0.005727860300530691
130.439,0.008018434199254963
131.668,0.011090977650448263
132.898,0.013794583919845423
134.127,0.01720282102799002
135.356,0.02073760269730741
136.585,0.024963026353391874
137.814,0.029434896245439574
139.043,0.032668469081127804
140.271,0.03526311746738779
141.5,0.035897469477503205
142.728,0.034267911262045134
143.956,0.03202452610074647
145.184,0.027432662406286973
146.412,0.02376513453223253
147.639,0.02070677388590667
148.867,0.017771825461627325
150.094,0.01597926439104833
151.321,0.014591744832194687
152.549,0.013252985029151971
153.775,0.01283376071255918
155.002,0.011938988160966698
156.229,0.010279604840298502
157.455,0.008655588828588627
158.681,0.007779678195264296
159.908,0.005702588239344676
161.134,0.005338417449748432
162.359,0.004461498746293523
163.585,0.003595453526570317
164.811,0.0032444822007040358
166.036,0.0024969586809797228
167.261,0.001983165845941935
168.486,0.0021879432436457415
169.711,0.0014432441628394739
170.936,0.0011211669683253538
172.161,0.0009452221219320607
173.385,0.00014440636137873702
174.61,4.4806622613010753e-05
175.834,2.3645111636887666e-05
177.058,9.280475937814729e-05
178.282,0.000671282579343573
179.505,0.0007363532880753837
180.729,0.0008587908968643427
181.952,0.00044218746563460956
183.176,0.00031572509199771293
184.399,0.00046488557805623727
185.622,9.933694715020471e-05
186.845,0.0004511724785930747
188.067,0.0005368790471864548
189.29,0.0003517195476163985
190.512,0.0011563611743319634
191.734,0.000973190128248433
192.956,0.001352400024708557
194.178,0.0016013332215663245
195.4,0.0021746114070703487
196.622,0.0035315974477938203
197.843,0.0037194442131025375
199.064,0.0048437008509190135
200.286,0.005798793720156593
201.507,0.0059397829225943805
202.727,0.007385565928725681
203.948,0.007978392625718105
205.169,0.008532831197535992
206.389,0.008879148623876882
207.609,0.009366358276212022
208.829,0.00897127139641585
210.049,0.008673345215400443
211.269,0.008622902918294128
212.489,0.0072392333242489474
213.708,0.007024338374190817
214.928,0.006072640650241503
216.147,0.005431480893789717
217.366,0.006007598549560535
218.585,0.005924509132737139
219.803,0.005943206191051274
221.022,0.006320570625790869
222.24,0.007259535342703637
223.459,0.0077028243637603955
224.677,0.009769930594817773
225.895,0.011090260024766081
227.112,0.013705583788788382
228.33,0.015535810510037554
229.548,0.018651663640914945
230.765,0.02106056819604434
231.982,0.025559906665724188
233.199,0.03008402746555019
234.416,0.03452659592518287
235.633,0.03977499014239494
236.849,0.04267747085337774
238.066,0.04352029312416689
239.282,0.04212373051195333
240.498,0.03845893737360665
241.714,0.03295753646402601
242.93,0.025391060979880104
244.146,0.01984200584594486
245.361,0.014865276588838097
246.577,0.010693626370695477
247.792,0.008355000644198102
249.007,0.006249288090968229
250.222,0.004298911920115378
251.437,0.0029984471448614033
252.651,0.0021393934418350727
253.866,0.0018575202564007375
255.08,0.0017018847016953996
256.294,0.0007997007254055232
257.508,0.000833504774094015
258.722,0.0018566324370601465
259.936,0.0016337762058697596
261.149,0.0009504423638877136
262.363,0.0004369835157214709
263.576,2.7826275244141367e-05
264.789,0.00010664092194815966
266.002,0.00017883581115160567
267.215,0.00046487845028763726
268.427,0.0006772723293787003
269.64,0.0008771465980972237
270.852,0.0006069430729960393
272.064,0.0012096793078713983
273.276,0.0014730120519479122
274.488,0.0018526311889997668
275.7,0.002382450351096652
276.912,0.0028733625640460733
278.123,0.0032526432533099806
279.334,0.003505674674671665
280.545,0.003515846048952153
281.756,0.004020087674065879
282.967,0.0038499318364695894
284.178,0.004227363184955226
285.388,0.0038966109626844096
286.598,0.0038662917624944578
287.809,0.003641872755916455
289.019,0.0039070756907066
290.229,0.0039297642994367615
291.438,0.00408817289554507
292.648,0.004648303984598642
293.857,0.005193345539037694
295.067,0.006031881451022463
296.276,0.0065630311299246895
297.485,0.007146426867783038
298.693,0.00614422381203911
299.902,0.006815140790190546
301.111,0.006288689619977737
302.319,0.005849793631813252
303.527,0.0054305596175761054
304.735,0.004841884967013764
305.943,0.0046268372790570595
307.151,0.005372102217411373
308.358,0.004793891809989002
309.566,0.005471769757257597
310.773,0.005645604881121721
311.98,0.007162801340274437
313.187,0.008442633407401258
314.394,0.008689889396668034
315.601,0.010290194667932856
316.807,0.011391284603152528
318.013,0.012948382019998973
319.22,0.014509644575095376
320.426,0.016367475640997654
321.631,0.018090136091074425
322.837,0.02016651811895622
324.043,0.021644143340323236
325.248,0.02469948801925506
326.454,0.025794124172157276
327.659,0.029122147215029377
328.864,0.031402073100253176
330.068,0.03400331588467375
331.273,0.03705516456281603
332.478,0.03929722114683822
333.682,0.04257819606812784
334.886,0.04636318665941774
336.09,0.05037184372008379
337.294,0.05469786588987245
338.498,0.06008975615058776
339.701,0.06601089535191194
340.905,0.0729085388514425
342.108,0.07923649423340878
343.311,0.08505813560366295
344.514,0.09028128685262206
345.717,0.09523271010678756
346.92,0.09841615581881095
348.122,0.10162088786019097
349.324,0.10019887378037086
350.527,0.0993018901658657
351.729,0.0944852156799963
352.931,0.09050661161918269
354.132,0.0841641097706857
355.334,0.07740048771612473
356.535,0.0720299322729878
357.737,0.0654797068824323
358.938,0.05966155666414552
360.139,0.054342204783196665
361.34,0.05024155586819043
362.54,0.04521411762875763
363.741,0.04143351522153781
364.941,0.0378859956963617
366.141,0.034594164262218
367.341,0.03128517284639024
368.541,0.029449850013033144
369.741,0.02757587236928178
370.94,0.025003790401433093
372.14,0.02384584802618924
373.339,0.023520860568604546
374.538,0.02107038706095257
375.737,0.021131705266201672
376.936,0.01965122408857246
378.135,0.019766121778876336
379.333,0.019895672609798812
380.531,0.0190943659544883
381.73,0.01849680680705122
382.928,0.01897093918597525
384.126,0.01860632715356091
385.323,0.018358178981013582
386.521,0.018158606309034465
387.718,0.017865548345484667
388.916,0.017517291390273016
390.113,0.017521640783765696
391.31,0.01731272443145169
392.506,0.017443317759142197
393.703,0.017535202939394492
394.9,0.0186454377532398
396.096,0.01896540183104923
397.292,0.020012776514193177
398.488,0.02122509843015099
399.684,0.02181199986644324
400.88,0.022388005999303986
402.075,0.022307258563592034
403.271,0.022681083358142493
404.466,0.02232766240731244
405.661,0.02167855543131271
406.856,0.02139804137073456
408.051,0.021059060212347325
409.245,0.020303531287208944
410.44,0.020420867935067807
411.634,0.020630395238976102
412.828,0.021630358138874303
414.022,0.021970944257402095
415.216,0.023092268327565977
416.41,0.023239051872505162
417.603,0.024287759981747762
418.797,0.022907285761517158
419.99,0.023156073978591835
421.183,0.022503054003095345
422.376,0.019997846990710496
423.569,0.01867581077535592
424.761,0.016902906829882085
425.954,0.013685126608024031
427.146,0.012377859905020298
428.338,0.010653657529491272
429.53,0.009142885759722951
430.722,0.007952204137140656
431.914,0.006965250627143085
433.105,0.006603877607942914
434.297,0.006688664112528227
435.488,0.007075808621598634
436.679,0.008012499240910435
437.87,0.009290343290944724
439.061,0.010427658776648033
440.251,0.012636660939890281
441.442,0.014268764786991227
442.632,0.016477985147231432
443.822,0.017033858970413686
445.012,0.01805046787684519
446.202,0.017888919668377336
447.391,0.016413442475234685
448.581,0.016218161010882123
449.77,0.014330723036767683
450.96,0.012404596310503738
452.149,0.010784042357828174
453.337,0.008135630231270691
454.526,0.007538366861986402
455.715,0.006538738530818409
456.903,0.005345249440195688
458.091,0.006222299546731591
459.28,0.00643029462283199
460.467,0.00441276905318009
461.655,0.004140908200658841
462.843,0.0029333623745452795
464.03,0.002938192286315692
465.218,0.0024534472902930722
466.405,0.0029967806046792018
467.592,0.0018772942381203627
468.779,0.0010345228799640697
469.965,0.0015594883710618754
471.152,0.0008482548911561517
472.338,0.0006900004875930689
473.525,0.0002750049257971966
474.711,8.16533896474857e-05
475.897,0.00025994235063398033
477.082,0.0003009868545499096
478.268,9.481246268871544e-05
479.454,0.00022281380399633908
480.639,0.00010894697328727259
481.824,0.0005478412643639954
483.009,0.0006572331170859989
484.194,9.775303089789782e-05
485.378,0.00032379144710654214
486.563,2.831634570156088e-06
487.747,9.235493414479608e-05
488.932,0.0003863478960749636
490.116,0.00024408893257371134
491.3,0.000872868482290543
492.483,0.0003286355659259329
493.667,0.00037608201825024796
494.85,0.0007630882389121697
496.034,0.00013698868170073373
497.217,0.0007279672501204312
498.4,0.0009022693155601897
499.582,0.0003157274679205796
500.765,0.0001366098917122741
501.948,0.0007817115951292159
503.13,0.0008064672567533904
504.312,0.0007925928369764023
505.494,0.00040086594850771376
506.676,0.00023703355688876619
507.858,0.00012164671740368438
509.039,6.931827695877697e-05
510.221,7.662462767959861e-05
511.402,0.000462233854184133
512.583,0.0003210024530786098
513.764,0.0005145385838885954
514.945,0.0006936560146322355
516.125,0.0015470065330140939
517.306,0.001493678701830305
518.486,0.00166844964837457
519.666,0.0021779595187835002
520.846,0.0019410489765133616
522.026,0.0022601669348529187
523.206,0.00227253967440172
524.385,0.0026179285512957333
525.565,0.0024882695916387137
526.744,0.0028534751198875086
527.923,0.0031994269450362606
529.102,0.0035503987557847587
530.281,0.004226454030797057
531.459,0.005019175846443365
532.638,0.005627926075464735
533.816,0.00649387722803771
534.994,0.007728595853630631
536.172,0.008226603832953731
537.35,0.00841435992528774
538.527,0.00828702500610011
539.705,0.007432410399776733
540.882,0.00747486668675769
542.059,0.006329395482152831
543.236,0.005867743971512143
544.413,0.0055662005691527695
545.59,0.0046246965240659575
546.766,0.003935363719286648
547.943,0.0035321395461131977
549.119,0.003216227628997009
550.295,0.003278561177609958
551.471,0.0024681358273135625
552.647,0.00276811887869641
553.822,0.002117756057752864
554.998,0.0021171645014472816
556.173,0.0018111252711654835
557.348,0.001723311162012913
558.523,0.0009663833516764975
559.698,0.0018386884008300844
560.873,0.0015182021048722057
562.047,0.0018426329176709944
563.222,0.0009403354789421786
564.396,0.0007605358189182483
565.57,0.0013420206359566799
566.744,0.0009440666476073048
567.917,0.0013801338329137848
569.091,0.0020635054957088106
570.264,0.001301946575311236
571.438,0.0019077749040888054
572.611,0.0020869253068232486
573.784,0.0032843429131736964
574.957,0.002648929495883758
576.129,0.0025032519672831244
577.302,0.003060676928679767
578.474,0.0024592430874411236
579.646,0.002919715364528388
580.818,0.0023522518865789046
581.99,0.001809046096216028
583.162,0.002351981807183651
584.333,0.0016148473738555687
585.504,0.0020656787378084984
586.676,0.0018716264498777814
587.847,0.0015224167011083695
589.018,0.002055706650119481
590.188,0.0005427936404778401
591.359,0.000886983888529723
592.529,0.000993592032439967
593.7,0.0011195998289977788
594.87,0.0011971237677265276
596.04,0.001167978952267821
597.209,0.0006878936743572048
598.379,0.0005666207526551379
599.549,0.0007799170460415444
600.718,0.0009835152101919287
601.887,0.0007749639741878386
603.056,0.0010609926002277791
604.225,0.0012015560760784338
605.394,0.0012820445846861406
606.562,0.0015893338413251444
607.73,0.0014389544098595683
608.899,0.0014728156746497477
610.067,0.001167254538234592
611.235,0.0015453632671783416
612.402,0.0018216418815849668
613.57,0.002238517428715268
614.737,0.002427479423124672
615.905,0.002636665369951719
617.072,0.0031407770466311035
618.239,0.002801179602945182
619.406,0.0032228234818042494
620.572,0.004253392632165272
621.739,0.00471763874755282
622.905,0.004264903736013239
624.071,0.004785058225747122
625.237,0.005336788245496993
626.403,0.00689928240142633
627.569,0.00745540836336178
628.734,0.008288314792799166
629.9,0.009226077001812064
631.065,0.010317338374479153
632.23,0.011943027229840059
633.395,0.013809925593213142
634.56,0.014990254980447752
635.724,0.01728626925765451
636.889,0.018141228130352446
638.053,0.019286539323825465
639.217,0.019697544886828407
640.381,0.021302854142579795
641.545,0.022224629784875445
642.708,0.023551025091367053
643.872,0.025308330375897792
645.035,0.02617689504362412
646.198,0.029881884917817313
647.361,0.03276619224328109
648.524,0.036628051212541424
649.687,0.041421267096718964
650.849,0.04728378403792441
652.012,0.05290622609550706
653.174,0.060807575785656376
654.336,0.06788748651081666
655.498,0.07624307386249818
656.66,0.08235695374535422
657.821,0.09020147523959023
658.983,0.09594907509520309
660.144,0.0998069919720336
661.305,0.10280865534064496
662.466,0.1021005818381519
663.627,0.10058653711341418
664.787,0.09649408270788691
665.948,0.09305874068377343
667.108,0.08744656843156144
668.268,0.08389883070938738
669.428,0.08145851548419601
670.588,0.0814727710213961
671.748,0.08333908267728579
672.907,0.08686757057541755
674.067,0.09239818563861403
675.226,0.10219780072279881
676.385,0.11407819086775765
677.544,0.12694226156774463
678.703,0.14367928049331055
679.861,0.1623169407357786
681.02,0.1801399503643053
682.178,0.2006851372511667
683.336,0.2193848624174991
684.494,0.23182737651742621
685.652,0.23724200775415122
686.809,0.2384333148747943
687.967,0.23051838848254969
689.124,0.21822007835416365
690.281,0.199167310445131
691.438,0.17567787024423276
692.595,0.15199428320337138
693.752,0.1317436622637568
694.908,0.11228815118471064
696.065,0.09586310547800662
697.221,0.08165397150614694
698.377,0.07138193567726658
699.533,0.0606153199863422
700.688,0.05214210020864904
701.844,0.046912660037326484
702.999,0.041111029756196404
704.155,0.03621603709452568
705.31,0.0318931472638633
706.465,0.028714526129905913
707.619,0.026573470511828602
708.774,0.024175378830153697
709.929,0.022489986427328596
711.083,0.02112455810231292
712.237,0.018580802953621696
713.391,0.01751587553419736
714.545,0.016795146605822608
715.698,0.015308235889986824
716.852,0.013384872992363715
718.005,0.013459156948113855
719.158,0.011836285258437731
720.311,0.01180861303027415
721.464,0.010840206265103233
722.617,0.010788159007856362
723.77,0.009712952085416995
724.922,0.00907891524874308
726.074,0.009157606783852025
727.226,0.008087049881880307
728.378,0.008577750686182816
729.53,0.007885275844632873
730.681,0.007343051455878601
731.833,0.00779477742752317
732.984,0.006980888078663596
734.135,0.006870024608410902
735.286,0.006700912237347083
736.437,0.006017751983198969
737.588,0.005773211334351258
738.738,0.005756788373638091
739.888,0.0049570721320016005
741.039,0.005645886112807981
742.189,0.005573371977152408
743.338,0.005083796099594941
744.488,0.005146927764338208
745.638,0.004822096923709825
746.787,0.005117844528921148
747.936,0.004220729026452788
749.085,0.003376891897182012
750.234,0.0038858102112853603
751.383,0.0038516080742961446
752.531,0.003051230453314726
753.68,0.0034193617608650638
754.828,0.002856486723341583
755.976,0.0030548195514900687
757.124,0.00244819116705331
758.272,0.002660956999293564
759.419,0.0024858214213215957
760.567,0.001956703398911491
761.714,0.0020580219627089518
762.861,0.0021255170825292134
764.008,0.0021784468254122786
765.155,0.0008300955672214351
766.302,0.00148427926004038
767.448,0.001081400807888143
768.595,0.0013768099653115183
769.741,0.0012649316365771995
770.887,0.001128994421965527
772.033,0.000416089553055425
773.178,3.863905172218986e-06
774.324,0.00019779785759770847
775.469,0.00019290641427387124
776.614,0.00027058226660142226
777.759,0.00027570572606642427
778.904,0.0002427915332238376
780.049,3.42021903262594e-05
781.194,0.000669255771673628
782.338,0.0004894755069384053
783.482,0.0004899632984494016
784.626,0.00032051000669832357
785.77,0.00015902623907720212
786.914,8.093367897176811e-05
788.058,0.0003463356579122751
789.201,0.00038601643059095063
790.345,0.0003872475950298879
791.488,0.00012697377891189452
792.631,0.0005990710101918385
793.773,0.0004024285784306641
794.916,0.00041926213740577214
796.059,0.00031032937116747786
797.201,0.0007980860676206148
798.343,0.00029237830414525915
799.485,1.9115914120242452e-05
800.627,0.0004307685863844482
801.769,0.00022155422545944517
802.91,0.0007301928594996294
804.052,0.0002744035748708172
805.193,0.0003376939415639346
806.334,0.0005273331709667873
807.475,0.0007803762295016969
808.616,0.0008601500217205282
809.756,0.0005413065067161843
810.897,0.0006939547020783326
812.037,0.000963424115501934
813.177,2.7213068947539425e-05
814.317,0.0001265381607275216
815.457,0.00023839728812601995
816.596,0.00020085203371049567
817.736,0.0002602737676297716
818.875,0.0003155333210806164
820.014,0.0001981719442286565
821.153,9.290420872099557e-05
822.292,0.000748896706164812
823.431,0.0006429329707218787
824.569,0.0009394074143775195
825.707,0.0018759118389177277
826.846,0.0014111018055110065
827.984,0.0020857606197363567
829.122,0.0022415857633888113
830.259,0.0020531401685412467
831.397,0.0024513923594545015
832.534,0.002810849124130361
833.671,0.0029618113840216005
834.808,0.003641285563550832
835.945,0.003874663738865097
837.082,0.004903259903482339
838.219,0.0049281343612498476
839.355,0.005917938978687436
840.491,0.006805923179232254
841.627,0.007703624419419584
842.763,0.008097053002031257
843.899,0.0080977366859582
845.035,0.009121526698033696
846.17,0.009849548254962509
847.306,0.009525389945970061
848.441,0.010379490577142688
849.576,0.010530531387953193
850.71,0.01053126840892408
851.845,0.00991137558654019
852.98,0.009946083455682457
854.114,0.009966259404760546
855.248,0.009506421353614021
856.382,0.009419957156555499
857.516,0.008766200160088122
858.65,0.008180346069386083
859.783,0.007720575901750034
860.917,0.00734418123144582
862.05,0.007242346268086519
863.183,0.007073573314575083
864.316,0.0065508605862606645
865.448,0.007017331826145192
866.581,0.006494662737230368
867.713,0.006321142786807743
868.846,0.005648228093919425
869.978,0.00574630037126945
871.11,0.0058444114391968905
872.241,0.005845565458874993
873.373,0.005682082570358556
874.505,0.005421351704262168
875.636,0.005126863338170187
876.767,0.0049778735791405114
877.898,0.004513741895956339
879.029,0.004369679025140613
880.159,0.004977214139324453
881.29,0.0045277724478074224
882.42,0.003918359869676687
883.55,0.004230365090764946
884.68,0.003543556097928714
885.81,0.0037295777665700457
886.94,0.0036974397731815373
888.069,0.003505338651294806
889.199,0.003099926689555137
890.328,0.003067940949182984
891.457,0.003045695037917574
892.586,0.0031206146742551086
893.714,0.0032952149422587466
894.843,0.004012826562855967
895.971,0.0036519301828757855
897.1,0.003902132316497248
898.228,0.0038226853348931403
899.356,0.0037820953595680737
900.483,0.004561008699418999
901.611,0.004724173505200631
902.738,0.004843750793787436
903.866,0.005148023598150188
904.993,0.0054321888218275445
906.12,0.00532891860710388
907.246,0.005443913273851295
908.373,0.005491072918343846
909.5,0.0056548564338352505
910.626,0.005856805028681053
911.752,0.0061263655999615795
912.878,0.006440477149403485
914.004,0.006720753617694966
915.129,0.006812076334574743
916.255,0.0071735075396410376
917.38,0.007684859477594973
918.505,0.00782490800853044
919.63,0.008318498710850383
920.755,0.00882775110880172
921.88,0.009093083507143988
923.004,0.010039772397784563
924.129,0.01024256953651132
925.253,0.01054983454903944
926.377,0.01140040523766728
927.501,0.012514829433873434
928.625,0.012853141454800258
