wavelength,intensity
110.82,0.0
112.211,7.522947607463853e-05
113.602,0.00040589975325066484
114.992,8.884496874738006e-05
116.382,0.00042195905230056515
117.772,0.00035683452164259093
119.162,0.0004853089140417931
120.551,0.0009598049546290943
121.94,0.00043489086104636345
123.329,0.0007013578837780271
124.718,0.00221237694347737
126.106,0.00420727451467632
127.495,0.009318199774351029
128.883,0.014548129676713449
130.27,0.024328873144985715
131.658,0.032446916698220786
133.045,0.04015753311921946
134.432,0.04371933242570655
135.819,0.04018971960082974
137.206,0.032954292601989656
138.592,0.024087600602285236
139.978,0.016591277877394756
141.364,0.011620270230456737
142.75,0.009096642542621833
144.135,0.0070243141300799315
145.52,0.00510724500364244
146.905,0.004609498860716893
148.29,0.003929354573962813
149.675,0.0032569150656478313
151.059,0.00262442015442617
152.443,0.0016388776516820785
153.827,0.0012026727598257745
155.21,0.0006710721404610955
156.593,0.0008642104254114662
157.976,0.0002849943722696071
159.359,0.00021281965416641697
160.742,5.1591467962240025e-05
162.124,5.256608121979737e-05
163.506,5.233333775530606e-05
164.888,0.0006566323480182805
166.27,0.001261833239206159
167.651,0.0013697146838200572
169.033,0.0018059098780320074
170.413,0.0015559773389235807
171.794,0.0011220077540908286
173.175,0.0006594155719478225
174.555,0.00031876156990955437
175.935,9.055175415364967e-05
177.315,0.0001980162000603344
178.694,0.0001732969046024867
180.074,0.0003247159235427904
181.453,0.0001941565376075202
182.831,0.0002929706847506113
184.21,0.0003924879111093532
185.588,0.0011489623565722282
186.967,0.00161469172666369
188.344,0.003059514666003963
189.722,0.00401092630944484
191.1,0.005276313735306668
192.477,0.0063855399941391815
193.854,0.007113246377626497
195.231,0.007713850585390671
196.607,0.007056098159449527
197.983,0.006706493231672696
199.359,0.005532598231466837
200.735,0.0050045857405130656
202.111,0.004350339013005821
203.486,0.0037516306947128148
204.861,0.003463387611584683
206.236,0.0030143721315370035
207.611,0.0029909329251338575
208.985,0.0024622076573200817
210.359,0.0022393897318248924
211.733,0.0020023502108848486
213.107,0.0013388955700636665
214.48,0.0011072624858508688
215.854,0.00106008344606961
217.227,0.0012263350120490576
218.599,0.0013003959219790625
219.972,0.0012336324894252956
221.344,0.0019618722433520685
222.716,0.0019674871794329216
224.088,0.002676016471210587
225.46,0.003267844310834569
226.831,0.004208331557910884
228.202,0.005788199043700063
229.573,0.007328781372211978
230.944,0.009804657859248748
232.314,0.01299280692878375
233.685,0.017208445661715227
235.055,0.022786060358272422
236.424,0.02749030035550381
237.794,0.03079746376537088
239.163,0.031921997755815876
240.532,0.030184975094451116
241.901,0.024529308907312326
243.27,0.020031662676572214
244.638,0.0147621178970245
246.006,0.01015576107307824
247.374,0.007473344156594142
248.742,0.0051778632498268445
250.109,0.0034198015490365086
251.476,0.002756923918054378
252.843,0.0019286820555511725
254.21,0.001419982423328003
255.577,0.0006247270980942638
256.943,0.000808468365665798
258.309,0.00031290904154203337
259.675,0.0002726783639402753
261.04,9.771346450893429e-05
262.406,0.00013884117421341925
263.771,0.00020960973388530767
265.136,0.00038775061184251976
266.5,0.0006831796494368204
267.865,0.0007469271145965545
269.229,0.0008449702990135182
270.593,0.0007575945233857394
271.957,0.000934416521710834
273.32,0.0007321818463565948
274.684,0.00083410408851508
276.047,0.0005536385161586998
277.409,0.0004377710614194434
278.772,0.00031390305008829834
280.134,0.0002566869484008517
281.496,5.1450852119109855e-05
282.858,0.0001524857598192222
284.22,0.00023383444948111136
285.582,0.0006143894092131082
286.943,0.0010904952587631408
288.304,0.0013032906688186733
289.664,0.0018539907987381702
291.025,0.0023692896779441038
292.385,0.0033194600229076933
293.745,0.0039771882047379544
295.105,0.00473525791269703
296.465,0.006098029083159763
297.824,0.007231392778788897
299.183,0.008275872715093235
300.542,0.008707631237013319
301.901,0.008608948008069005
303.259,0.008654148728402087
304.618,0.007975434844190193
305.976,0.007833500121427911
307.333,0.0076220914745149726
308.691,0.007879331188643991
310.048,0.00788780208098704
311.405,0.008521116443156597
312.762,0.00885371655155903
314.119,0.009869224775356377
315.475,0.010667088766921292
316.831,0.012425203804755572
318.187,0.014059833888210686
319.543,0.01586565163862133
320.899,0.017031148478816795
322.254,0.018333338465001313
323.609,0.019182216914689413
324.964,0.01959652452559483
326.318,0.020105646005347387
327.673,0.021433835376044454
329.027,0.02346580219278582
330.381,0.026143297554760365
331.734,0.030012953430081157
333.088,0.03583851749747643
334.441,0.043412140145511084
335.794,0.05457158316509721
337.147,0.06761714043034348
338.499,0.08410279156543658
339.852,0.10097229001051981
341.204,0.11692019706855013
342.556,0.1266475113652551
343.907,0.12901862420033772
345.259,0.12251394864531205
346.61,0.10897775361045157
347.961,0.09568212803907591
349.311,0.07768647609694061
350.662,0.06536054707743494
352.012,0.05303731400305962
353.362,0.04512670306255243
354.712,0.03832922653155234
356.061,0.033469198726599265
357.411,0.030624414150699414
358.76,0.02741932814530049
360.109,0.025657949850141155
361.458,0.02327503013305778
362.806,0.021361820669073103
364.154,0.02028536759933427
365.502,0.01866297109423148
366.85,0.01713933539922784
368.197,0.01662788163600819
369.545,0.016191938580549438
370.892,0.015673274618752734
372.239,0.01618894685726629
373.585,0.01623711020794946
374.932,0.01761170280687948
376.278,0.018964504798946503
377.624,0.019872470995682335
378.97,0.020760144871607832
380.315,0.02122380864345193
381.66,0.021504007530588582
383.005,0.021671708894398924
384.35,0.020373063397225725
385.695,0.019641604025373488
387.039,0.019977370414657438
388.383,0.020577232752628547
389.727,0.023464619080174658
391.071,0.024974178644398753
392.414,0.027264175533283974
393.758,0.031624386748241966
395.101,0.03439881491435496
396.443,0.03956347482139411
397.786,0.043661180501338964
399.128,0.04843748369376347
400.471,0.05020731833479933
401.812,0.0517344936699921
403.154,0.05229167182633994
404.496,0.050230292054273484
405.837,0.04986579154476921
407.178,0.04741609384866553
408.519,0.044917704280261414
409.859,0.04183725724891977
411.199,0.03982336199243171
412.539,0.03794769695856279
413.879,0.035050865125416074
415.219,0.03321529015330577
416.558,0.031258867986080546
417.898,0.02993989137751959
419.237,0.027218436593689256
420.575,0.026477231089261446
421.914,0.02476484044455535
423.252,0.022140570603616665
424.59,0.02045452845861986
425.928,0.01760044384178471
427.266,0.015768112731710766
428.603,0.013510079278615686
429.94,0.011791259095703017
431.277,0.010856813481059121
432.614,0.010218970318976337
433.951,0.009778818485868035
435.287,0.010180887669598947
436.623,0.010765825332909552
437.959,0.012475064243200659
439.294,0.012953807852014925
440.63,0.014933480121578403
441.965,0.01612675586402534
443.3,0.015086862913500353
444.635,0.013322342581570381
445.969,0.011401045282194633
447.303,0.008786608852630703
448.637,0.0072753570494668695
449.971,0.005649353020664466
451.305,0.004656639109920736
452.638,0.004090417900212975
453.971,0.003505097179950396
455.304,0.003191538396236658
456.637,0.00306301066679351
457.97,0.0028968706237241307
459.302,0.0026420359253948554
460.634,0.002885131625233851
461.966,0.0029210904904977577
463.297,0.0028755891431897066
464.629,0.0031343077480826802
465.96,0.0027938089083540734
467.291,0.0027682895572370366
468.621,0.002503572959311235
469.952,0.0022588335087542705
471.282,0.00203194742145266
472.612,0.0017127349110806537
473.942,0.0017327508490269062
475.272,0.0010882890446726502
476.601,0.00088967159066238
477.93,0.0008169053162536078
479.259,0.0006954423207222063
480.588,0.0005581576184275726
481.916,0.000495583568234649
483.245,0.00045118290356075503
484.573,0.0003726853213388844
485.901,0.00036647882895244954
487.228,0.0005547585940815641
488.556,0.00032559356035680967
489.883,0.00037271441427194586
491.21,0.000303255036587821
492.536,3.480969440798131e-05
493.863,0.00012495414749877118
495.189,2.610120977826485e-05
496.515,0.0003676570927414368
497.841,6.44214514423234e-05
499.167,0.00015374645358521676
500.492,0.0003107755597841964
501.817,0.00023488664389349916
503.142,0.0002607114708076806
504.467,0.00020398025133792414
505.791,0.0003750273024503282
507.116,0.0007059933577791455
508.44,0.0008913492831355882
509.764,0.0015711347570485771
511.087,0.0017077260777719138
512.411,0.0024939189543570226
513.734,0.003284873374319849
515.057,0.004492710129764025
516.38,0.005511345843865474
517.702,0.007465697564021168
519.024,0.008808986166977107
520.347,0.010806763938549136
521.668,0.011771645609997449
522.99,0.013289215428457787
524.312,0.013851475150447018
525.633,0.014433057428811204
526.954,0.013899366967088283
528.274,0.012798301275979493
529.595,0.01178931471801008
530.915,0.01051359930091145
532.235,0.009063282646044746
533.555,0.008829996113469624
534.875,0.009348257623025645
536.194,0.010302922826147223
537.514,0.011524307190753664
538.833,0.012963907948609413
540.152,0.013525896136556739
541.47,0.01342845905491189
542.788,0.0128073685734503
544.107,0.011909880681438756
545.425,0.011540899860243023
546.742,0.011171889946114231
548.06,0.011631975287191778
549.377,0.011650759624305099
550.694,0.011858570445162774
552.011,0.011135324978078212
553.327,0.010125916572579406
554.644,0.00856852337758017
555.96,0.00695771555748018
557.276,0.005754136067907325
558.592,0.004623211329833172
559.907,0.0037104108573869686
561.222,0.003306663981182848
562.538,0.002825263217815638
563.852,0.002198325056808707
565.167,0.002448955826310608
566.481,0.0020788646248363664
567.796,0.001689310251144039
569.11,0.001658495986209825
570.423,0.0016033697268806233
571.737,0.0017858018124643938
573.05,0.0016918267898538512
574.363,0.0019081666889206991
575.676,0.0017802596087161946
576.989,0.0017590896510918392
578.301,0.0014518973708963737
579.614,0.0014454387397567399
580.926,0.0012402899222741823
582.237,0.0012632345488152838
583.549,0.0013009341412406987
584.86,0.00116429918111777
586.172,0.001255835246173331
587.482,0.00263265345448255
588.793,0.0036413248390104653
590.104,0.0017701886050547687
591.414,0.0008352387129044752
592.724,0.0007977330733661362
594.034,0.0009739295736304105
595.343,0.0004377322708420282
596.653,0.0006340028949186777
597.962,0.0005784062998383165
599.271,0.00036304586285120275
600.58,0.0004873211752452076
601.888,0.00016083058278567095
603.197,0.00010598555514272955
604.505,0.00017246775601023642
605.813,7.414333990701242e-05
607.12,0.00017447516839147391
608.428,0.00040372263209323574
609.735,0.00017665713837107993
611.042,0.00022728369072011644
612.349,0.00016068511812036392
613.656,0.00024963191213345893
614.962,0.00025493652359499
616.268,0.0003526742322148088
617.574,0.00018874040323592036
618.88,7.318812193816267e-05
620.185,5.207635017993025e-06
621.491,0.00011912101441995775
622.796,0.00019400622412003624
624.1,0.00018360550055058087
625.405,0.0005236437021723824
626.71,0.0003469865638013025
628.014,0.0009749575239319138
629.318,0.001169312863248687
630.622,0.0013329800070078458
631.925,0.001526831068818221
633.228,0.0018131540183642994
634.532,0.0016385382341296954
635.835,0.0020408595566138066
637.137,0.0022304194107976233
638.44,0.002881073161071783
639.742,0.0030232066855433192
641.044,0.003695743170301839
642.346,0.004577389960261446
643.648,0.004940862519464216
644.949,0.0059926108402117316
646.25,0.0070240328983936715
647.551,0.00856623958233485
648.852,0.010007644102040407
650.152,0.011402470835914641
651.453,0.013889363846937333
652.753,0.01735534557838666
654.053,0.02095342862122351
655.353,0.025660786411114644
656.652,0.03189093135212846
657.951,0.04076943023383364
659.25,0.04998231843932453
660.549,0.059737528010013224
661.848,0.06896104968253806
663.146,0.0739699654212551
664.444,0.07528160091304022
665.742,0.06873865845339444
667.04,0.061762047035890874
668.338,0.05536839981107191
669.635,0.04908077208315091
670.932,0.045258460107565394
672.229,0.04454348673111463
673.526,0.044355740336424976
674.822,0.04673763210320685
676.119,0.050623153324690466
677.415,0.05533241670169712
678.71,0.06319607649706536
680.006,0.0720273284554788
681.302,0.0804704370474534
682.597,0.08969193191230829
683.892,0.09469204218995207
685.186,0.0963465718396212
686.481,0.09111551701051374
687.775,0.08021135478089715
689.07,0.06824037409120726
690.363,0.05592998554677855
691.657,0.045510579465475605
692.951,0.03664277708549267
694.244,0.030189659056674006
695.537,0.02414865697113679
696.83,0.019799874430049755
698.122,0.01686206035186386
699.415,0.014297581337188555
700.707,0.012562212124186123
701.999,0.010608621669112204
703.291,0.00958597113024828
704.582,0.00808325810293797
705.874,0.007322380926938468
707.165,0.006706944172135148
708.456,0.00570842137242349
709.747,0.005485676179260954
711.037,0.005267750715342258
712.327,0.004482483963792938
713.618,0.003949326872509473
714.907,0.003847690710859425
716.197,0.0033678124776557626
717.487,0.003028525843471381
718.776,0.0030528717796216073
720.065,0.0029365727797086064
721.354,0.002640838266317161
722.642,0.002796019971266741
723.931,0.0024808368321237403
725.219,0.0023838264468304567
726.507,0.00262620452098727
727.795,0.0023642808446353637
729.082,0.0021847580523577347
730.369,0.002427058545359717
731.657,0.0022620288825688493
732.943,0.0023782066619274273
734.23,0.0023779836161072895
735.517,0.002382580299530993
736.803,0.0027314191134038724
738.089,0.002595341767831287
739.375,0.003104128678853641
740.66,0.0031231554570758054
741.946,0.0031227578536572992
743.231,0.003136867926192085
744.516,0.003141246412617828
745.801,0.003368636777425836
747.085,0.003624223043192531
748.37,0.0036970184105343646
749.654,0.004486750927308612
750.938,0.004610570450417988
752.222,0.005297667948173746
753.505,0.004592915888871887
754.789,0.004362436824337192
756.072,0.0038415424043391133
757.355,0.0025870987701305534
758.637,0.0021082242431175093
759.92,0.001658704485563432
761.202,0.0012717975687796931
762.484,0.0009048387064317303
763.766,0.0006700247948708846
765.047,0.0007198997797825012
766.329,0.00042389373234914915
767.61,0.0004984734662520828
768.891,0.00016286708809996992
770.172,0.00019553845192793733
771.452,0.00018560806410964153
772.733,0.00012830953244518753
774.013,4.502616273471436e-05
775.293,6.085271832012332e-06
776.573,7.156861533107731e-05
777.852,0.0001125411627259014
779.132,0.00021830852087067036
780.411,0.00025499470946111283
781.69,0.0003363191550121175
782.968,0.0002371219509170511
784.247,0.000312681146899719
785.525,0.00024300842103981043
786.803,0.00013959759047301598
788.081,0.00022542659182636285
789.359,0.0002289953249485629
790.636,0.0002472850821998382
791.913,0.0003433354007020951
793.19,0.0003571884856615048
794.467,0.0003128023674541415
795.744,0.00048254508540095884
797.02,0.00025954775348522403
798.296,0.00032280548760509086
799.572,0.00047841388890623813
800.848,1.365913207233366e-05
802.124,0.00012597240015592065
803.399,5.653726658268031e-06
804.674,0.00010842936151988827
805.949,0.0001329644017350137
807.224,0.00019495174444453218
808.498,0.00015995779479382856
809.773,0.00019284250679757969
811.047,0.00013844841961709015
812.32,0.00010829359449893501
813.594,0.00010127734880895745
814.868,0.0001363779725475529
816.141,0.0001909805590816492
817.414,7.430335103885019e-05
818.687,0.00010682925020151054
819.959,0.00013448693189856102
821.232,6.514392594668183e-05
822.504,0.00011576078065136449
823.776,2.324040469389252e-05
825.048,5.600874496539797e-05
826.319,0.0001749794458978718
827.591,0.00021683932775106894
828.862,8.411736712490035e-05
830.133,0.00037321384295616673
831.404,2.851107440018527e-06
832.674,6.39753598020484e-05
833.945,0.0001056752305234078
835.215,7.811452526989537e-06
836.485,0.00015988021363899814
837.754,0.00011904828208730423
839.024,0.0003982192189224517
840.293,0.0004009878963854629
841.562,0.00023402355354601058
842.831,0.0004888921936305239
844.1,0.00045766092998909645
845.368,0.0009015996932175596
846.637,0.0007636603999290441
847.905,0.0011930139060493852
849.173,0.0018260033971330904
850.44,0.0019401495199995464
851.708,0.002359756893544314
852.975,0.003327266626612506
854.242,0.003897158394708182
855.509,0.004932522545319944
856.775,0.005953325682934469
858.042,0.006639545543876206
859.308,0.0071124026825677145
860.574,0.007391292387716602
861.84,0.00714165077793879
863.105,0.0069986687095862955
864.371,0.00647261999161417
865.636,0.006266583839673239
866.901,0.005688293911567168
868.166,0.00461801824128171
869.43,0.0044749828358852705
870.695,0.0037452254006171267
871.959,0.003073648982649633
873.223,0.0025911620831147973
874.486,0.0025790060859173037
875.75,0.0024941032095997452
877.013,0.0017303652285158703
878.276,0.00177151718233124
879.539,0.0015120373123564924
880.802,0.0015774188305898423
882.064,0.0014052032133328048
883.327,0.0013251103686147336
884.589,0.0013225938299049212
885.851,0.0011164170621208603
887.112,0.0013514831124349048
888.374,0.0015574465320431822
889.635,0.0012785325827834103
890.896,0.001494198495567669
892.157,0.0018311043580631916
893.418,0.0017510309086338277
894.678,0.0019134034168717536
895.938,0.002143659435586311
897.198,0.0023642129611248872
898.458,0.002415062559294061
899.718,0.002349584064617173
900.977,0.0023956430264755676
902.236,0.00235445713090496
903.495,0.002211470213730289
904.754,0.0021315713218992938
906.013,0.002124453250943601
907.271,0.0020856966152836215
908.529,0.0021062313772028025
909.787,0.002185742363259646
911.045,0.0021303009304889453
912.303,0.0023270903785385234
913.56,0.0022475696948373266
914.817,0.0024396945759527244
916.074,0.002952006580697686
917.331,0.003163711005763416
918.587,0.0036564628618467538
919.844,0.0040428800475906254
921.1,0.004621974880178062
922.356,0.005555261626321678
923.612,0.007060850005182891
924.867,0.0079795902847958
926.122,0.009231255543896994
927.378,0.010510219671854148
928.632,0.011154613592697928
929.887,0.011627126465014875
931.142,0.012108018102053511
932.396,0.012063137403984105
933.65,0.012469080796634361
934.904,0.01251740415844937
936.158,0.012372133446029377
937.411,0.01264325048922869
938.664,0.012387208434177368
939.917,0.012688688801848442
941.17,0.012335418164505875
942.423,0.011937533514313628
943.675,0.01097138145145497
944.928,0.009626216354316567
946.18,0.009500966428665006
947.432,0.00840510837257421
948.683,0.008065065322130234
949.935,0.007260669967093033
951.186,0.006592080423586511
952.437,0.005990036115635796
953.688,0.0054788878282132905
954.939,0.004989030718969563
956.189,0.004726437905157244
957.439,0.004245686883961739
958.689,0.004133795463407542
959.939,0.003852161324906529
961.189,0.003473759242221077
962.438,0.003414041148290349
963.687,0.0033954459152419282
964.936,0.0031535624209471595
966.185,0.0030989549855908864
967.434,0.0029588531176114726
968.682,0.0027499561605861694
969.93,0.002909986687712652
971.178,0.0025804704302147276
972.426,0.003128169139206722
973.674,0.002716780519251804
974.921,0.002802725892337397
976.168,0.003156132296700918
977.415,0.0030599025717781155
978.662,0.003565174086722215
979.909,0.0037499481534174297
981.155,0.00410986652596453
982.401,0.004287721323413305
983.647,0.005535929372302368
984.893,0.007077384488806127
986.139,0.007798210393624417
987.384,0.007557083315589244
988.629,0.007611642262723748
989.874,0.008243472885307173
991.119,0.00981116497861015
992.364,0.011296475583127557
993.608,0.013373386132626633
994.852,0.016124331452936888
996.096,0.018453477732078418
997.34,0.021854267049359295
998.583,0.02578363132096646
999.827,0.0294075585860062
1001.07,0.03436981895773709
1002.313,0.04043281045184655
1003.556,0.04615642318415028
1004.798,0.053625655539538415
1006.041,0.060513077721920036
1007.283,0.06841880589849508
1008.525,0.07336681073302588
