wavelength,intensity
113.208,0.0
114.44,2.99144883981348e-05
115.671,0.00017953190806332175
116.903,0.0024661919345028423
118.134,0.005212343224326796
119.365,0.00967697382486438
120.596,0.015515081795231297
121.827,0.0241228127489339
123.058,0.036035786978921514
124.288,0.05172529545432252
125.519,0.06984490753541034
126.749,0.08728165998932501
127.979,0.09739450898613766
129.209,0.09594364441436497
130.439,0.08670174085696751
131.668,0.07267962595647093
132.898,0.057428722539903804
134.127,0.04356491198583875
135.356,0.032243319503834834
136.585,0.024221185653258894
137.814,0.019311457420992564
139.043,0.016125495170259345
140.271,0.013564439424040935
141.5,0.011540618628556763
142.728,0.010307892868878548
143.956,0.009557173975339657
145.184,0.007695827513359126
146.412,0.007109231552864021
147.639,0.005353647600206082
148.867,0.003746906002383641
150.094,0.003009411301567815
151.321,0.0026889322788432018
152.549,0.0012889318517062124
153.775,0.0008879192263276475
155.002,0.0005490345595017311
156.229,0.00022815269663066087
157.455,9.094145399200729e-05
158.681,0.0005103976897495208
159.908,0.001369041667301903
161.134,0.0030855009586966352
162.359,0.005007044093356755
163.585,0.0064988569684133884
164.811,0.005407930164476503
166.036,0.003610968302889751
167.261,0.0021555337162153273
168.486,0.0015315673983206193
169.711,0.0007549577338859399
170.936,0.0002323243807905587
172.161,0.0008191857173234049
173.385,0.0006127034737421993
174.61,0.0009122462520713839
175.834,0.00040852034768439343
177.058,4.2105203162415376e-05
178.282,0.000429636919776581
179.505,0.0011664898789772945
180.729,0.0019845817020175903
181.952,0.0034754335405187613
183.176,0.004748905407596139
184.399,0.006818360408116009
185.622,0.008308776822385695
186.845,0.010286524109544939
188.067,0.0114709992397408
189.29,0.01238395002567449
190.512,0.012278914839678431
191.734,0.010804955327877154
192.956,0.009792433978540778
194.178,0.009342220839415404
195.4,0.008473990740419284
196.622,0.006856927939711089
197.843,0.006763859646847627
199.064,0.005852533216343201
200.286,0.006018770235856119
201.507,0.0050756937177373375
202.727,0.004157813134296392
203.948,0.002382578360002122
205.169,0.0006372840928857875
206.389,0.00032319009618016274
207.609,0.00028593843794744996
208.829,0.0002447139942405358
210.049,8.649275662114302e-05
211.269,4.894755069384053e-05
212.489,0.0011867278929792492
213.708,0.0016664344778778493
214.928,0.002927218431964927
216.147,0.004023260258416226
217.366,0.005303278035432421
218.585,0.007417272376940444
219.803,0.009686778143306077
221.022,0.01297267946792743
222.24,0.016462177986934733
223.459,0.021433510504958602
224.677,0.02653598426757897
225.895,0.03285080903909021
227.112,0.04116825070670603
228.33,0.050916124009441066
229.548,0.06152718948493044
230.765,0.0724973102426194
231.982,0.08195013756471213
233.199,0.08701521721070422
234.416,0.08270766905340957
235.633,0.07530613595325535
236.849,0.06423428690629496
238.066,0.053370985701163144
239.282,0.04185787928963813
240.498,0.0321243197099693
241.714,0.02419451228246375
242.93,0.017573896540366174
244.146,0.012456415673108292
245.361,0.009404528204388597
246.577,0.006570847431273856
247.792,0.004401454326630289
249.007,0.003080611891295665
250.222,0.00271014345145606
251.437,0.0005553108749275133
252.651,0.0006600386455975545
253.866,0.0004689956821744885
255.08,0.000255410738403891
256.294,0.0007995678676778762
257.508,8.586769495431853e-05
258.722,0.0014924951043369231
259.936,0.0005297624308774154
261.149,0.0010254618859620922
262.363,0.0016388970469707863
263.576,0.001243344195363413
264.789,0.002031964392330279
266.002,0.0016155383310157772
267.215,0.001303876406537643
268.427,0.0010926161335833178
269.64,0.0010548486576474263
270.852,0.0010114885502126953
272.064,0.0005554883418191879
273.276,0.0008749020783115357
274.488,0.0004183932284716712
275.7,2.9793738179463405e-05
276.912,0.0003151900244704918
278.123,0.000490266349835458
279.334,0.0008302327888890414
280.545,0.00163081406040189
281.756,0.00253784443445758
282.967,0.002639883048348311
284.178,0.0035756795448506915
285.388,0.004870011529815321
286.598,0.006212563111800371
287.809,0.00760818020368944
289.019,0.00905122362529079
290.229,0.0106432180153444
291.438,0.013340210491292267
292.648,0.014844223002945986
293.857,0.016362621969998575
295.067,0.0171486645330962
296.276,0.017226560861368135
297.485,0.016858045527101385
298.693,0.016120583313394145
299.902,0.01615606214526254
301.111,0.015400557464235043
302.319,0.015802238742191804
303.527,0.016094220267218327
304.735,0.016062276226716896
305.943,0.016480361070098117
307.151,0.016489268356437086
308.358,0.01673428418985813
309.566,0.017824076369405622
310.773,0.018902410782149093
311.98,0.02077464284991677
313.187,0.022589653967174824
314.394,0.025388757789346073
315.601,0.028483426416132576
316.807,0.031105974925198464
318.013,0.034288848476204996
319.22,0.03431804323453213
320.426,0.03699177106167521
321.631,0.04049961267497774
322.837,0.046321457695763325
324.043,0.05314895813368279
325.248,0.061081970632647274
326.454,0.07229773272181812
327.659,0.08617554667433007
328.864,0.10277820473737401
330.068,0.12509219346614758
331.273,0.1490591941632489
332.478,0.1755131072666616
333.682,0.20450072391039284
334.886,0.23435889808776514
336.09,0.25780465040084943
337.294,0.2721088212873764
338.498,0.27455122150610384
339.701,0.265524993559135
340.905,0.24394424371995257
342.108,0.2189741186908937
343.311,0.19088135217990979
344.514,0.16270116140507632
345.717,0.1350290302179387
346.92,0.11406388684233579
348.122,0.09703278685174074
349.324,0.08346864320585261
350.527,0.07386123543276024
351.729,0.06703899111808054
352.931,0.06094508838259331
354.132,0.055383974227904115
355.334,0.05058882851250017
356.535,0.04654926505927855
357.737,0.04202709348596766
358.938,0.03901290560967338
360.139,0.03563501727953402
361.34,0.032877797583326845
362.54,0.031720698903141775
363.741,0.03081576322026651
364.941,0.03015812716605761
366.141,0.0302811660287965
367.341,0.03114420303924116
368.541,0.03336383866951735
369.741,0.034461534429213195
370.94,0.037241781181938466
372.14,0.04000750571224393
373.339,0.04159982012456121
374.538,0.04386128169493537
375.737,0.043402578268178234
376.936,0.04423366638929928
378.135,0.042999175658348675
379.333,0.04247746663622488
380.531,0.041897581445622605
381.73,0.04168138216239888
382.928,0.042430108190023075
384.126,0.04506503089328441
385.323,0.04778240781766397
386.521,0.05203203194523336
387.718,0.056645298340781705
388.916,0.06261143461190755
390.113,0.06869879143745594
391.31,0.07663354951240411
392.506,0.08348706873012483
393.703,0.08877441838470614
394.9,0.09474540347800889
396.096,0.09733748683733728
397.292,0.09816775065868825
398.488,0.09778454824204767
399.684,0.09602078917519948
400.88,0.09196193710735814
402.075,0.08904997694901949
403.271,0.08454770009310043
404.466,0.08010021492778038
405.661,0.07580556463747627
406.856,0.07140889512857015
408.051,0.06941714444296403
409.245,0.06519323846822092
410.44,0.062100223289796745
411.634,0.05754703380102022
412.828,0.055285252208382395
414.022,0.05188550053904737
415.216,0.04875432513009097
416.41,0.04529697430211653
417.603,0.041867222969973014
418.797,0.03786404022954469
419.99,0.0324588787425312
421.183,0.02831024103444016
422.376,0.023885162276399564
423.569,0.021051418468596525
424.761,0.01880290810225688
425.954,0.01675797553501448
427.146,0.015973664001434004
428.338,0.016309372204851832
429.53,0.016654700471468636
430.722,0.018973441178218534
431.914,0.019590177417365264
433.105,0.0223064051708889
434.297,0.025303796727162393
435.488,0.027215003627588007
436.679,0.02877705169187707
437.87,0.02735701593150512
439.061,0.02647515579336973
440.251,0.023338549703575198
441.442,0.020512214896058468
442.632,0.01627482919566358
443.822,0.012905339025534613
445.012,0.01029707514660188
446.202,0.008833113906129373
447.391,0.007233361400592719
448.581,0.006239677725413608
449.77,0.006084806345083351
450.96,0.005823241481572535
452.149,0.0058380400868564405
453.337,0.005891221968492705
454.526,0.005880166653929368
455.715,0.006110262661512087
456.903,0.0061444080672818325
458.091,0.006028230287923255
459.28,0.006314853864444301
460.467,0.0068290375145495475
461.655,0.006102043907922238
462.843,0.0058391795600680136
464.03,0.004812337699314374
465.218,0.003980608563901541
466.405,0.003468811504071766
467.592,0.002821155295667367
468.779,0.0024473814137497677
469.965,0.0021342061718702225
471.152,0.0017671377261410616
472.338,0.0018995711818477045
473.525,0.0015488980585453033
474.711,0.0012051432347249063
475.897,0.0009874335433930834
477.082,0.000764523005394315
478.268,0.0007944446021657612
479.454,0.0007852488109072661
480.639,0.0009508166929597705
481.824,0.0008077027366440651
483.009,0.0011263096291261763
484.194,0.0004335434218516241
485.378,0.0003372204540783601
486.563,0.0001857657478068344
487.747,3.901789019887124e-06
488.932,0.00011193249007803485
490.116,0.00037325748235575884
491.3,9.260823661531745e-05
492.483,0.0006099808600898687
493.667,0.0006873535155666979
494.85,0.0010849215376707918
496.034,0.00026572869257878665
497.217,0.0005034793902675167
498.4,0.00037757123700544
499.582,0.00045530629345177096
500.765,0.00016995024753598873
501.948,0.0007032901394155225
503.13,0.0011739454279564995
504.312,0.0022558907585751085
505.494,0.0036193805244844586
506.676,0.004929841146656117
507.858,0.007476878947961104
509.039,0.009510203434912004
510.221,0.012712375298182609
511.402,0.016433463262003116
512.583,0.020178979591950856
513.764,0.024220526213442835
514.945,0.02743787004130497
516.125,0.029986410977484793
517.306,0.03109995268805475
518.486,0.032378446480260746
519.666,0.03162057072518874
520.846,0.03063979461464455
522.026,0.02976087286274836
523.206,0.02688920156787759
524.385,0.025103714928854697
525.565,0.022411537333328495
526.744,0.020548518027696933
527.923,0.019155931449668425
529.102,0.01933928481146581
530.281,0.020443943479807682
531.459,0.022033508609950663
532.638,0.02305578578950697
533.816,0.02704555668779398
534.994,0.02899399769371603
536.172,0.029512050703918446
537.35,0.029632514842081403
538.527,0.02858932469247612
539.705,0.027759536055698485
540.882,0.028379666470369047
542.059,0.027269116483082233
543.236,0.026439827274988822
544.413,0.026260435400909967
545.59,0.02514523539315551
546.766,0.02368613267250426
547.943,0.02151963528446474
549.119,0.019140458858101932
550.295,0.016267308672467205
551.471,0.013894387226712603
552.647,0.011846967213693447
553.822,0.010086190172484046
554.998,0.007923431226342918
556.173,0.006779414668391129
557.348,0.005975324789151075
558.523,0.00602983524806381
559.698,0.005347761130083322
560.873,0.0049714731338670005
562.047,0.005018914010045812
563.222,0.0048063285539905395
564.396,0.005298579526743004
565.57,0.005635722981525195
566.744,0.00637046985481337
567.917,0.006819150766130844
569.091,0.007684820687017558
570.264,0.008574734718788782
571.438,0.00924646145024376
572.611,0.008764163654773822
573.784,0.008461277128671446
574.957,0.007949886400140096
576.129,0.007477286249023964
577.302,0.0061900839721882525
578.474,0.0053732125976898824
579.646,0.004757553766830861
580.818,0.0041041255205070785
581.99,0.003809924204687969
583.162,0.003293671562159839
584.333,0.003490190930814163
585.504,0.00311938840712657
586.676,0.002826167038269413
587.847,0.003100251075758772
589.018,0.0026130559698901643
590.188,0.0027174166847214135
591.359,0.0019441313727712186
592.529,0.002334551746104341
593.7,0.0015224545219213491
594.87,0.0009964281085312369
596.04,0.0007564705664051335
597.209,0.0003516437605257735
598.379,0.0003395572469500745
599.549,0.00017229654409916997
600.718,0.0006402103570695481
601.887,0.0004331456729684528
603.056,0.000305350309626904
604.225,0.00016713991869047798
605.394,0.000271972036013766
606.562,0.0008858710838401241
607.73,0.000525708815537525
608.899,0.0007332185245380164
610.067,0.0005678450802548057
611.235,0.0004028618206921703
612.402,0.00040252797928529057
613.57,5.226215704574914e-05
614.737,0.00015194240080607853
615.905,0.0002934200251017448
617.072,0.0005399522306821754
618.239,0.000810705127336003
619.406,0.0007323166436131126
620.572,0.0011242353029988976
621.739,0.0013076289100203478
622.905,0.00145704972934155
624.071,0.001880488157288288
625.237,0.002197046907282876
626.403,0.002710039201779257
627.569,0.003368728905047197
628.734,0.0039896147662129185
629.9,0.004389154804296359
631.065,0.004615588496488864
632.23,0.005104553907334259
633.395,0.005942221880149363
634.56,0.006106121767373012
635.724,0.0073135269776434435
636.889,0.00832324570776157
638.053,0.010293850679854239
639.217,0.010999431887748348
640.381,0.013220391246478835
641.545,0.014997804596577187
642.708,0.018564103610044444
643.872,0.02153866691150908
645.035,0.025868602080794497
646.198,0.030808436649957208
647.361,0.03579768556592473
648.524,0.04388293168595524
649.687,0.052815456144355455
650.849,0.06454849058335824
652.012,0.07906814312742673
653.174,0.09959369228447168
654.336,0.11267756009373767
655.498,0.13222941726943885
656.66,0.14946707708476992
657.821,0.16971420687241714
658.983,0.1809780207893611
660.144,0.18189813328565005
661.305,0.17204299918753976
662.466,0.15913310711798104
663.627,0.14493978030641805
664.787,0.1300510839064655
665.948,0.11781954205945543
667.108,0.10866098975527891
668.268,0.10384426678118773
669.428,0.10265320210165346
670.588,0.10443553215743921
671.748,0.11248608010597179
672.907,0.12418769417726823
674.067,0.1383524129379875
675.226,0.15673070968221303
676.385,0.18512647909103158
677.544,0.1948106437191843
678.703,0.21124422335291965
679.861,0.22166565139307037
681.02,0.22449590889772822
682.178,0.21730083864586652
683.336,0.2009996318575606
684.494,0.180460360533755
685.652,0.1540621603971549
686.809,0.1292612592620699
687.967,0.10695488318411407
689.124,0.09082333668377794
690.281,0.07366888265700253
691.438,0.06653718651099293
692.595,0.04958075838192219
693.752,0.04333492265234392
694.908,0.037687077615376464
696.065,0.030821290877548174
697.221,0.02678382696432915
698.377,0.023554123488738095
699.533,0.02132726311341832
700.688,0.01865901445533513
701.844,0.016213666152724137
702.999,0.01520826772316563
704.155,0.013543279164060933
705.31,0.012469701445873005
706.465,0.011405671058551396
707.619,0.01037543211298062
708.774,0.00917533407773078
709.929,0.008876971502719454
711.083,0.00845723321097591
712.237,0.00747488123322422
713.391,0.007195463006458051
714.545,0.006309786845269439
715.698,0.006495559769333094
716.852,0.006579347416549966
718.005,0.00629932793583386
719.158,0.0062591069558764565
720.311,0.0061554488353786395
721.464,0.0058753663199742345
722.617,0.005871128449391622
723.77,0.005837647332260112
724.922,0.005580970081503613
726.074,0.005610223025696865
727.226,0.005775097526178072
728.378,0.00571192707085739
729.53,0.006215913647924611
730.681,0.006468207563433188
731.833,0.006617352484772525
732.984,0.007363338927866761
734.135,0.007934617459105031
735.286,0.008486350388148208
736.437,0.008509416235243731
737.588,0.009128741745432926
738.738,0.009204490045480494
739.888,0.00922226097875884
741.039,0.009409600072385636
742.189,0.010102506459109322
743.338,0.010390822274570109
744.488,0.011531284645866226
745.638,0.01269593779100291
746.787,0.01504176886725516
747.936,0.016491823685724313
749.085,0.016385818735292875
750.234,0.015761392264173578
751.383,0.013653003161102054
752.531,0.011402087778962665
753.68,0.008761045862114075
754.828,0.0073418004597569616
755.976,0.005549069680401773
757.124,0.004386564563489458
758.272,0.003471226217515863
759.419,0.0029921587073801787
760.567,0.0020329419148811425
761.714,0.0010784488449468448
762.861,0.0016075765650013037
764.008,0.0007595175662610988
765.155,0.0005610853372579862
766.302,0.0007990020101298316
767.448,8.16155203462841e-05
768.595,4.438045478306064e-05
769.741,0.00010265868127071338
770.887,0.00032849111951328293
772.033,0.00010339735084114266
773.178,0.00010949862378633876
774.324,0.0003322035232365846
775.469,4.637633181633933e-05
776.614,0.00018102350274138045
777.759,0.0003577308749102131
778.904,0.00047978479640031367
780.049,0.0009417416373734802
781.194,0.0009438014170342283
782.338,0.0008350748227148959
783.482,0.0008239967186873273
784.626,0.0001492954287797076
785.77,0.000658012322809827
786.914,0.0007212079920058294
788.058,7.707920475868319e-05
789.201,0.00036903134592281445
790.345,0.0006565397355147018
791.488,6.696727703808415e-05
792.631,0.0009953177282527265
793.773,0.0006733918169905255
794.916,0.00011442793641137759
796.059,0.00022484992140486387
797.201,0.0002919379341151529
798.343,0.00018855954216872193
799.485,0.00021353049149755085
800.627,1.4643539950688357e-05
801.769,0.0005962203876340377
802.91,0.00028087180667836124
804.052,0.00014608497512815882
805.193,0.00011262383514401758
806.334,0.0005412851718986059
807.475,3.1396598780015455e-05
808.616,0.0009227061312713974
809.756,0.00045626989988298674
810.897,0.0005037329836673686
812.037,0.00010017976942099385
813.177,7.476845006205865e-05
814.317,0.00017535072021195716
815.457,0.00022252733558212768
816.596,9.88728663796534e-05
817.736,0.00037676628403585246
818.875,4.814018785963106e-05
820.014,0.00016265810386414546
821.153,0.00023347980662709273
822.292,0.00018548873459586795
823.431,0.0003864094761166104
824.569,0.00027725414894039626
825.707,0.0003985930631122908
826.846,0.00035048367981994964
827.984,0.0001595352684293333
829.122,0.000159487895436665
830.259,0.00013961674332061476
831.397,6.729161475349715e-05
832.534,0.0002985079911884119
833.671,0.00010318191767182288
834.808,2.8444213991187967e-05
835.945,0.0004230573590118553
837.082,0.0004970139707768351
838.219,0.0005612463181542594
839.355,0.0008048545384973526
840.491,0.0010581371288478011
841.627,0.0017574871153623732
842.763,0.001981626829782986
843.899,0.001861486108059226
845.035,0.002274694006094918
846.17,0.003478243917852494
847.306,0.0041144670884459755
848.441,0.005351935965977636
849.576,0.006594543625252377
850.71,0.0073904389950134675
851.845,0.009534607556928353
852.98,0.010970843232193333
854.114,0.012950142142449187
855.248,0.014100287611632581
856.382,0.015434693172360436
857.516,0.016284216515398065
858.65,0.016241561426707855
859.783,0.016261941026317374
860.917,0.016277481501394346
862.05,0.014455328069069719
863.183,0.013224740639971517
864.316,0.012614812147161158
865.448,0.011141812702150906
866.581,0.010308872330958282
867.713,0.008947420040127668
868.846,0.008255134302642624
869.978,0.006888876829034698
871.11,0.006133595193827341
872.241,0.005203780204362387
873.373,0.005180724054911217
874.505,0.004774631318537912
875.636,0.004130987995367117
876.767,0.0037346583624470035
877.898,0.0036632376361923217
879.029,0.0034319478485896485
880.159,0.0028515855338851702
881.29,0.0034156873234194073
882.42,0.0031848853273277306
883.55,0.002876715039699184
884.68,0.0038101133087528683
885.81,0.002964216399821344
886.94,0.0033695100502998962
888.069,0.003930150265682043
889.199,0.004675117001472475
890.328,0.004382563315429078
891.457,0.004579788187710141
892.586,0.005019515263995748
893.714,0.00564839295387344
894.843,0.0064034079038610674
895.971,0.006285688199050235
897.1,0.00626014945264449
898.228,0.006603193924015971
899.356,0.005738939859204913
900.483,0.005922094419293041
901.611,0.004999780557735756
902.738,0.004635147190503835
903.866,0.004279753253930002
904.993,0.0037424382976298434
906.12,0.0037205759281986263
907.246,0.0034616754924740186
908.373,0.003833117090924528
909.5,0.0035388018277842615
910.626,0.004104783505676483
911.752,0.0035982192947400216
912.878,0.004612120133985726
914.004,0.004998209539350439
915.129,0.005459376167773435
916.255,0.006124629721622248
917.38,0.00707997860867077
918.505,0.008039817505055103
919.63,0.00972217939401964
920.755,0.011020616391839235
921.88,0.01312642107269047
923.004,0.015771788138920856
924.129,0.017304103225621155
925.253,0.018842847850528026
926.377,0.020941068973494584
