wavelength,intensity
137.656,0.0
138.888,0.0011234822809148245
140.12,0.0017829647666086882
141.352,0.0006039814124103875
142.583,2.6663784673695583e-05
143.815,1.3282174938656923e-05
145.046,6.443628883818471e-05
146.277,4.157012593754987e-05
147.508,0.00037276266005260595
148.739,0.0002257638274087664
149.97,0.0006958108312076508
151.2,0.0002498090396075812
152.431,2.8879851570849575e-05
153.661,1.9442642304988657e-05
154.891,0.0002409826801107442
156.121,0.0004138971581081386
157.35,2.4750774011420155e-05
158.58,0.0006453762922168198
159.809,0.0017605438128626924
161.038,0.0018224516348885095
162.267,0.0028910345813520115
163.496,0.0036758620296121047
164.724,0.0051461955921894955
165.953,0.007015518366651031
167.181,0.009375541945415074
168.409,0.011260987053614809
169.637,0.014790449565004141
170.865,0.01881444345021573
172.092,0.023638396018172657
173.32,0.028613466978094918
174.547,0.03541441526577367
175.774,0.042237920274219375
177.001,0.05159491062598562
178.228,0.05950430936094858
179.454,0.06992263415490609
180.681,0.08008111056840339
181.907,0.0912887751245388
183.133,0.10228018221158437
184.359,0.11209521655029168
185.585,0.12190739008391464
186.81,0.1311638885960646
188.035,0.13653861402627368
189.261,0.13884146514274986
190.486,0.13854748105416428
191.711,0.13537062974030145
192.935,0.13409170440292173
194.16,0.13348380756660347
195.384,0.13491430708523316
196.608,0.13671986299924627
197.832,0.13827007993742368
199.056,0.14184385583468773
200.28,0.1451476008249201
201.503,0.14735216631587048
202.727,0.14752158416273142
203.95,0.14838084394070028
205.173,0.1462351431509775
206.395,0.14652568457581747
207.618,0.14401380073529502
208.841,0.1378511901895611
210.063,0.13318177443320425
211.285,0.1252173900547552
212.507,0.11632751098740084
213.729,0.10562397847299794
214.95,0.09661263641011218
216.172,0.08756269772269826
217.393,0.07917733860285057
218.614,0.07351740545219611
219.835,0.07082053904562484
221.056,0.06813875247602373
222.277,0.06476411770556507
223.497,0.0621755739864258
224.717,0.0590785342855948
225.937,0.055492781797553806
227.157,0.051413807117678324
228.377,0.048001041209620496
229.597,0.043100380274824976
230.816,0.04007747906507881
232.035,0.03629532988358456
233.254,0.03303880272371089
234.473,0.029594805552011636
235.692,0.02599801229587384
236.911,0.021347225714320628
238.129,0.019322255747980528
239.347,0.01586827970024121
240.565,0.012536974004755346
241.783,0.01018665776798946
243.001,0.008729775807895232
244.218,0.007433263792479868
245.436,0.0071019389243099605
246.653,0.006053225966245186
247.87,0.005989061502378238
249.087,0.005212348073148973
250.304,0.005512310759478678
251.52,0.006088874506889771
252.737,0.007528771042898312
253.953,0.007819719768801154
255.169,0.009017640682893565
256.385,0.010826741085917975
257.6,0.011923302221224421
258.816,0.011807876009303261
260.031,0.011290225451341531
261.246,0.012741410045377901
262.461,0.013838858515142717
263.676,0.014247992432785376
264.891,0.012994179145459814
266.105,0.012269091125948027
267.32,0.009289509293530299
268.534,0.0069598538880601924
269.748,0.004979497934569773
270.962,0.0036490844091401618
272.175,0.0018678996451526144
273.389,0.001143928794270386
274.602,0.0003314293117995987
275.815,0.0012878074098433888
277.028,0.0005566249057374538
278.241,0.0019927146314549084
279.454,0.0003302739344512864
280.666,0.0004815486524436054
281.879,0.0004199771447239781
283.091,0.0005620512226356251
284.303,9.577369319706455e-05
285.514,0.0006378329795562129
286.726,0.001045763904416782
287.938,0.0022486509821827757
289.149,0.0031211359226391254
290.36,0.004364489330764674
291.571,0.00746080995126685
292.782,0.010096382396699894
293.992,0.013903687267647902
295.203,0.01844950169789336
296.413,0.02321491928453072
297.623,0.027472500329292403
298.833,0.032400169203613265
300.043,0.03719833573523342
301.252,0.04109240543021492
302.462,0.04160144447999047
303.671,0.039444572003972105
304.88,0.03581456916474471
306.089,0.031065336946533843
307.298,0.02656906778129197
308.507,0.023198496323817555
309.715,0.021380377111544106
310.923,0.020212824370745633
312.131,0.022314071158750583
313.339,0.024450370082272355
314.547,0.031096267583200304
315.755,0.03856806011669784
316.962,0.04863509259276095
318.169,0.06130297994747048
319.376,0.07738710496691649
320.583,0.0953788536071994
321.79,0.11474277043532387
322.996,0.13311151499986093
324.203,0.1476806740183556
325.409,0.15868871256546793
326.615,0.16209680420894723
327.821,0.15899544905637877
329.027,0.14676996823708982
330.232,0.1320255727851219
331.438,0.11310478981574452
332.643,0.09579687056707013
333.848,0.08427708732740752
335.053,0.07639993325992096
336.258,0.07291925474845344
337.462,0.07025371173314496
338.667,0.06691854637520628
339.871,0.0647393402242411
341.075,0.05971503917275676
342.279,0.05389669500158289
343.482,0.04830762738704385
344.686,0.04111470516340649
345.889,0.03480409886718916
347.092,0.030008526455433646
348.296,0.0265774174530806
349.498,0.022362569078163957
350.701,0.018516381502179373
351.904,0.017686258296671527
353.106,0.01632733224219508
354.308,0.0156952397832141
355.51,0.014573421133188174
356.712,0.01368436534294226
357.914,0.013270654137164604
359.115,0.0132927599174691
360.317,0.013378312535958364
361.518,0.0141639332515266
362.719,0.014589684082769502
363.92,0.015219235758929783
365.12,0.016425952436451095
366.321,0.01635272067511334
367.521,0.01663359354853258
368.721,0.017675872119568604
369.921,0.018524328721727316
371.121,0.019469897534445026
372.321,0.021458079486928967
373.52,0.022049926721841653
374.72,0.022123042111447166
375.919,0.024334599603976638
377.118,0.02485400058674423
378.317,0.027104532911931645
379.515,0.02867628346939669
380.714,0.03143121937035854
381.912,0.03252304805522033
383.111,0.03502107881078336
384.309,0.03612267302350943
385.506,0.03902321420562148
386.704,0.03801077043743993
387.902,0.038419036415912926
389.099,0.037144761099000834
390.296,0.03755304162394036
391.493,0.03747159595783493
392.69,0.036095519619318776
393.886,0.0370371802813619
395.083,0.03463800731234155
396.279,0.03292735739479696
397.475,0.03138642110226614
398.671,0.028676908967457507
399.867,0.02682564805560493
401.063,0.024392518784879736
402.258,0.022492755104791606
403.454,0.02111181539763202
404.649,0.019551459572282697
405.844,0.018732968691177243
407.039,0.017529374655137858
408.233,0.016785298647981322
409.428,0.01584589753707263
410.622,0.01546376671013314
411.816,0.015105860598789456
413.01,0.014335790055942545
414.204,0.013478431016267044
415.398,0.012179824309671258
416.591,0.01183156250563743
417.785,0.011289342965705334
418.978,0.010528732474925561
420.171,0.011130660411144033
421.364,0.011542994551423446
422.556,0.01200803053994361
423.749,0.012978333194585696
424.941,0.014876147648158712
426.133,0.015461444124310405
427.325,0.01681410065171212
428.517,0.01761861722730374
429.709,0.018870563718091198
430.9,0.019181979322402745
432.091,0.018131016510847888
433.282,0.017128731025126954
434.473,0.014759218301362712
435.664,0.014440854334871665
436.855,0.01230914239712924
438.045,0.010216318013245573
439.236,0.008302977631062119
440.426,0.0074516068867750895
441.616,0.006280286611145165
442.806,0.00495871588271957
443.995,0.0035984035499827443
445.185,0.0030673154511221636
446.374,0.0022356386829888407
447.563,0.0016949334302225924
448.752,0.0012781335247182514
449.941,0.0008052026839296542
451.13,0.0006060460408933124
452.318,0.0008628963946015258
453.506,0.0006881492072859276
454.695,0.00043074492413222495
455.883,0.0006510775373324213
457.07,0.0002571817222157828
458.258,0.0005671938834364477
459.445,0.0008006331539101415
460.633,0.00014734455366505273
461.82,0.00043932035708140724
463.007,0.0002356508667568007
464.194,0.0001221297085807256
465.38,0.0004741617627864255
466.567,0.0004924963231546154
467.753,0.0007531205151631117
468.939,0.00032552926497474394
470.125,0.000816671603024681
471.311,0.00036399312875168234
472.497,7.136384957054674e-05
473.682,0.001438869070589255
474.868,0.0006277236701995894
476.053,0.0015239271092164744
477.238,0.0016114144077543219
478.423,0.0010405460868722176
479.607,0.0007323093703798472
480.792,2.2255337375721767e-05
481.976,0.0005877019768336558
483.16,0.00044578383704321794
484.344,7.161957645215656e-05
485.528,0.0007838896860510804
486.712,0.0002555386018446959
487.895,0.0006343151590668702
489.078,0.0003633775707763246
490.262,0.0003039084638643803
491.445,0.0015195471681440785
492.627,0.0010961984434076132
493.81,0.002112864565940805
494.992,0.00304216703490166
496.175,0.0035592342795555103
497.357,0.0043948798086406275
498.539,0.004408853144390024
499.721,0.005570564509111981
500.902,0.006145474808160752
502.084,0.0064950748871154046
503.265,0.007353219435983566
504.446,0.006812629100302911
505.627,0.006218609593054969
506.808,0.005910578466622899
507.989,0.005567053961855905
509.169,0.005871235123479514
510.35,0.005446546184293352
511.53,0.005763630061729698
512.71,0.006449117750522725
513.89,0.0070035902640958525
515.069,0.00709246917459847
516.249,0.007617645104578754
517.428,0.00899125824142904
518.607,0.009016806685479137
519.786,0.009825444759921127
520.965,0.010706519388863859
522.144,0.010673591037460517
523.322,0.0112757468683213
524.501,0.011291107936977726
525.679,0.010457866938810135
526.857,0.010798176674473844
528.035,0.009305651022557206
529.213,0.009607102297295219
530.39,0.010170389969585953
531.567,0.009705824316816948
532.745,0.01058429027942851
533.922,0.010051739290917155
535.098,0.012273217473620573
536.275,0.012671761563628876
537.452,0.012556345049352071
538.628,0.012887209279415173
539.804,0.011443394895087696
540.98,0.011323435034431133
542.156,0.010224221593393925
543.332,0.009749749796917506
544.507,0.010227232711965779
545.683,0.008924456018297857
546.858,0.008247303454826927
548.033,0.007933875589311966
549.208,0.007174404571743764
550.383,0.007045299832461565
551.557,0.0059948703913461675
552.731,0.006011089701527906
553.906,0.004243088885039355
555.08,0.004642680805520088
556.254,0.0047902290097165704
557.427,0.002799560096338097
558.601,0.0035581689933232444
559.774,0.0029735920823826026
560.947,0.0037999424193545977
562.121,0.0037632445935909305
563.293,0.0026791871160320633
564.466,0.003908306806657316
565.639,0.003459781542531721
566.811,0.0038405653666704676
567.983,0.0034746688812614637
569.155,0.003399838948134202
570.327,0.0031358904036412213
571.499,0.0036090103484947176
572.671,0.003921981939842833
573.842,0.0040654343439464865
575.013,0.004560184884531144
576.184,0.004424375193942723
577.355,0.0052509883370767075
578.526,0.005010729198211201
579.697,0.005061229681183638
580.867,0.004030290080808299
582.037,0.004579902135031299
583.207,0.004377790134878135
584.377,0.0030408884004936108
585.547,0.0023584123151546587
586.717,0.002723115505425927
587.886,0.0019821267433494244
589.055,0.0010324723130654577
590.224,0.000926333535141938
591.393,0.0008054587017405946
592.562,0.00015102374295644262
593.731,2.370903365964577e-05
594.899,0.0008484774520940715
596.067,0.0008864582762057469
597.235,0.0003564689204504525
598.403,0.0007140220375396603
599.571,0.0007018767077509556
600.739,0.0004077745988335859
601.906,0.0003630745193902682
603.074,0.00019096974620819474
604.241,0.0011866357653578879
605.408,0.00021281781161398974
606.574,0.0005932233306464944
607.741,0.0001621514504348809
608.908,0.0003443516168539302
610.074,0.00034430424386126194
611.24,0.0003562084902113311
612.406,0.0006831064322219493
613.572,0.0009241079257627399
614.737,0.000987909697730855
615.903,0.0017470534198021149
617.068,0.001276130476276973
618.233,0.0017351490764756022
619.398,0.0013714117715819731
620.563,0.002020699123766682
621.728,0.0021808809341450834
622.892,0.0023974109070412663
624.057,0.002186165180553472
625.221,0.003380064481532359
626.385,0.003253758482410668
627.549,0.0046926086425934325
628.712,0.0036685126698385736
629.876,0.0033890047398621313
631.039,0.004567107547953107
632.202,0.0057434977520512
633.365,0.00660460493126945
634.528,0.006946762068182557
635.691,0.007240334006883104
636.853,0.008867205974855172
638.016,0.00896173861201606
639.178,0.010738710719296314
640.34,0.011424571767396962
641.502,0.012895820787601353
642.664,0.013988755003919474
643.825,0.015503405831429317
644.987,0.017614359961432423
646.148,0.020050049410267026
647.309,0.021389803221856005
648.47,0.023999822374416772
649.63,0.027278857766835633
650.791,0.03127056334517123
651.951,0.03488878839533094
653.112,0.04056763195247532
654.272,0.04648395142455567
655.432,0.05400026584328153
656.591,0.06193972727574128
657.751,0.0723872904674255
658.91,0.08565706211895391
660.069,0.09922130274128559
661.229,0.1189378259181144
662.388,0.14656772386409123
663.546,0.16480812010560567
664.705,0.1965182049370022
665.863,0.23439938575294225
667.022,0.2772004239906762
668.18,0.32320832775154795
669.338,0.3716143134964502
670.495,0.41566901470802226
671.653,0.448315746519331
672.81,0.46651837043608735
673.968,0.4610109812311182
675.125,0.4370394226411706
676.282,0.3964756309558594
677.439,0.3451693707140648
678.595,0.29465710510373794
679.752,0.24572138553600903
680.908,0.2032616074030855
682.064,0.17174179035391057
683.22,0.1444953372656832
684.376,0.12172100135943452
685.532,0.10353466948519253
686.687,0.08816797619504098
687.842,0.07604141134816081
688.998,0.06507851533551542
690.153,0.05736389378739862
691.307,0.05035560016579117
692.462,0.045117655160370335
693.617,0.04011549867976789
694.771,0.03674188216196638
695.925,0.03248737527046486
697.079,0.030225967037134645
698.233,0.027020895578202253
699.387,0.024101211246135804
700.54,0.022489593672732268
701.694,0.020804608570970023
702.847,0.019128147698594777
704.0,0.017561182928618337
705.153,0.01676174306984593
706.305,0.014941020040063487
707.458,0.014092437368528174
708.61,0.013947646689503697
709.763,0.012926712633690397
710.915,0.012558362159377662
712.066,0.012509544217700612
713.218,0.01222064169475642
714.37,0.012900907202064922
715.521,0.012249831604261371
716.672,0.01215702999661764
717.824,0.011986923617007554
718.974,0.011747134813893207
720.125,0.01133915976475083
721.276,0.011688929552481672
722.426,0.011893026175551843
723.577,0.01219378406871856
724.727,0.013063900359541494
725.877,0.012981281278469254
727.026,0.013795476103125974
728.176,0.014879992764144994
729.325,0.015818356227107828
730.475,0.01751235528929693
731.624,0.018881075964570723
732.773,0.020632693580687957
733.922,0.02023633146065926
735.07,0.022041247330144998
736.219,0.02148713847823514
737.367,0.02281090572310687
738.515,0.02262745538486595
739.663,0.02163489663643188
740.811,0.021298092599202078
741.959,0.01793162809411149
743.106,0.017798018799026948
744.254,0.01597578778554749
745.401,0.015432210575405862
746.548,0.012776248832718943
747.695,0.012060698446429123
748.841,0.01151042986168337
749.988,0.009986716585524897
751.134,0.009299347553727232
752.28,0.008913536470755474
753.426,0.00829546195668792
754.572,0.007182875464086812
755.718,0.0069288359725945495
756.864,0.0074363961316061475
758.009,0.006610704749567993
759.154,0.005348726045696526
760.299,0.00558008274704524
761.444,0.0067715789717532554
762.589,0.005703548306135704
763.734,0.006143428605202099
764.878,0.005453654557604691
766.022,0.005529984716313487
767.166,0.004646327119797118
768.31,0.004906818938960185
769.454,0.004367112543562379
770.598,0.003856319189923223
771.741,0.004218143634468064
772.884,0.004463416455464488
774.028,0.0051594668184876775
775.17,0.005312272600570575
776.313,0.004737583407813072
777.456,0.0054234173025095285
778.598,0.006894588741559089
779.741,0.00725521019332184
780.883,0.006049502070813326
782.025,0.006783143412645167
783.167,0.006333507283358844
784.308,0.0058740183474090555
785.45,0.005023292496471554
786.591,0.0052610302478050715
787.732,0.0050491949045405665
788.873,0.004412068398375528
790.014,0.002076081885789042
791.155,0.0019334014141759517
792.295,0.002764491474825869
793.436,0.0009411733554143473
794.576,0.0006111222728303114
795.716,0.000528189957845446
796.856,0.0008184375440615089
797.996,0.000977587040198448
799.135,0.0009426221834808057
800.275,0.000340175180848299
801.414,8.666324120888288e-05
802.553,0.0006713911929603357
803.692,0.00026151438727195383
804.831,0.0005600675694830545
805.969,0.00018954918677502767
807.108,0.000546799252478179
808.246,0.0001815183250445333
809.384,0.00012316197433396634
810.522,0.0006724899360656217
811.66,0.0010728019066396245
812.797,0.0002345239035064451
813.935,0.000899769262845779
815.072,0.0001886968608127718
816.209,0.0006708136982390666
817.346,0.001027467358814459
818.483,0.0001242416130798754
819.62,0.0006953797709161243
820.756,0.00018586519714968266
821.893,0.0007482813906305633
823.029,0.00048704139820560034
824.165,0.00043481245559176296
825.301,0.0003636616632676693
826.436,5.5344747256492975e-05
827.572,3.9358801188484885e-05
828.707,0.0008262315408286617
829.842,0.0009602942007867437
830.977,0.0006490036960873603
832.112,0.0007601285178553886
833.247,0.00030940600996033033
834.382,0.00011603081155839618
835.516,6.25138278214865e-05
836.65,0.00016816510516334042
837.784,0.00010455272818945493
838.918,0.0004211467291212687
840.052,0.000422965037437607
841.186,0.0008179546013726895
842.319,0.0004522947384859188
843.452,0.0007319355261900081
844.585,0.0002896508416707516
845.718,0.0006331975055550943
846.851,0.0002883155245314545
847.984,0.0008461951114954036
849.116,0.0009522349734465145
850.249,3.5513840364511053e-06
851.381,0.00037879527367577716
852.513,0.0005525291056446245
853.645,0.001298319656322913
854.776,0.0018937302906534082
855.908,0.0012622846645508287
857.039,0.0010671670903878462
858.17,0.001230767320400964
859.301,0.001100767973427126
860.432,0.00017584554251511003
861.563,0.0009307561458494905
862.693,0.0018601580156649721
863.824,0.0008063154886192533
864.954,0.0011731119154242899
866.084,0.0014477239896487138
867.214,0.0008106910657516899
868.344,0.0008816143028510216
869.473,0.0009865365112903565
870.603,0.0011447482452182824
871.732,0.0007452886975829791
872.861,0.0014901414860522546
873.99,0.0003390671280044333
875.119,0.0012438271380522325
876.247,0.0017024859556453353
877.376,0.0017976154828161983
878.504,0.0011121888891826015
879.632,0.002822033417363604
880.76,0.0014043876414426499
881.888,0.0022123129390246347
883.015,0.001788637888555664
884.143,0.002974752405529535
885.27,0.0033607923529080435
886.397,0.005012339007173932
887.524,0.0027847867049295115
888.651,0.002763402429364937
889.778,0.004366316851843149
890.904,0.0041799877678758025
892.031,0.004240882186066647
893.157,0.004694493379773595
894.283,0.005172291953145584
895.409,0.006008864092148707
896.535,0.005715607326889659
897.66,0.006445408401557394
898.786,0.00601164731607825
899.911,0.005660282265851205
901.036,0.006613187346522566
902.161,0.006712825793435731
903.286,0.006250112390738302
904.41,0.0068786021748418425
905.535,0.005654870980301782
906.659,0.005881092778965156
907.783,0.006660133642839334
908.907,0.007531253639852886
910.031,0.007456901800592266
911.154,0.00873048373593306
912.278,0.009000340085366378
913.401,0.010778296503548545
914.524,0.012144141827271433
915.647,0.014586391732511386
916.77,0.01574858652480438
917.893,0.01680907727193685
919.015,0.020027264794857762
920.138,0.022532704550707102
921.26,0.026003050222115645
922.382,0.02738841205510056
923.504,0.030640769227902105
924.626,0.03157058421736706
925.747,0.032820596028105935
926.869,0.03143284857460997
927.99,0.030297477466599602
929.111,0.027647887076253132
930.232,0.025350966069299298
931.353,0.0229519288672999
932.473,0.019962581507017886
933.594,0.017861242591391577
934.714,0.01576474280029782
935.834,0.015420752808601843
936.954,0.013491421010878963
938.074,0.011786594528768837
939.193,0.012110170979100056
940.313,0.010565234408273281
941.432,0.009473076003503464
942.551,0.009367279552425634
943.67,0.00896903124057012
944.789,0.00796421951849502
945.908,0.007593774353001863
947.026,0.007989477033214502
948.145,0.006600449490663844
