wavelength,intensity
121.934,0.0
122.4161,3.920135508357868e-05
122.8982,4.418986212975314e-05
123.3804,5.192123635849113e-06
123.8625,6.313767728276675e-06
124.3446,3.2605250137585345e-05
124.8267,7.490281092458061e-05
125.3088,9.062007405812221e-05
125.7909,7.724968934642308e-05
126.2731,6.797583205087983e-05
126.7552,4.204542203379635e-05
127.2373,3.759494514519315e-05
127.7194,8.101295721436046e-05
128.2015,0.00017491214424605637
128.6837,0.0002951821355690529
129.1658,0.0004105499676712012
129.6479,0.0005288484278970693
130.13,0.000622095642298859
130.6121,0.0006598180241885054
131.0942,0.0006889288978919736
131.5764,0.0007493781942069785
132.0585,0.0008584766931872793
132.5406,0.0010061708469312866
133.0227,0.0011565551272190394
133.5048,0.001339766903408856
133.9869,0.0014924718299904741
134.4691,0.0016028814504874093
134.9512,0.0016811496834203126
135.4333,0.0017363772831330113
135.9154,0.0017705905724132338
136.3975,0.0017834835905816168
136.8796,0.00180187032427643
137.3618,0.0018343011865244233
137.8439,0.0018623845948086057
138.326,0.0018862621347365432
138.8081,0.0019026487292833844
139.2902,0.0018927726482734699
139.7723,0.001829123614203927
140.2545,0.0017126204788772787
140.7366,0.0016275915331831208
141.2187,0.001601205212660854
141.7008,0.0015984273224357067
142.1829,0.001586178712734634
142.665,0.0015629320045719114
143.1471,0.0015204160770781795
143.6293,0.0014103187207294369
144.1114,0.0012521705063720282
144.5935,0.0011636188913663507
145.0756,0.001237759321980057
145.5577,0.001431061497120007
146.0398,0.0015852167064147366
146.522,0.001656939999173257
147.0041,0.0017042809896152245
147.4862,0.001800491804131537
147.9683,0.0019413869394190918
148.4504,0.0020457903238854983
148.9325,0.0021587072703301096
149.4147,0.0022583573544164987
149.8968,0.002333664411645968
150.3789,0.002402872620341329
150.861,0.002455963829002885
151.3431,0.0024930049513766763
151.8252,0.0025246939438316037
152.3074,0.002558614364252341
152.7895,0.002597827274079167
153.2716,0.0026651861419962576
153.7537,0.002690071752054773
154.2358,0.002665270511502136
154.7179,0.002603481485619653
155.2001,0.002509585013928376
155.6822,0.002384981436272995
156.1643,0.0022391584430070544
156.6464,0.002100282842156179
157.1285,0.0019395065661788893
157.6106,0.0018216268502362183
158.0928,0.0017899557984233459
158.5749,0.0017975165668437897
159.057,0.0017768736761900638
159.5391,0.0016848372126858466
160.0212,0.0015308502575206552
160.5033,0.0014244321874397462
160.9855,0.0013734259723142581
161.4676,0.0013530148553605882
161.9497,0.0013842039342490766
162.4318,0.0014462552814113302
162.9139,0.0014867453709995523
163.396,0.001464810269235682
163.8782,0.001375949784257336
164.3603,0.0012778227152167119
164.8424,0.0011662425890462725
165.3245,0.001049124623067593
165.8066,0.0009245045594168104
166.2887,0.0007933400404738629
166.7709,0.0006765052457103145
167.253,0.0005997382081233802
167.7351,0.0005622165674718575
168.2172,0.0005159229226201009
168.6993,0.0004236333021100277
169.1814,0.0003326196006675846
169.6636,0.00032063845199778977
170.1457,0.0004180516774375303
170.6278,0.0005176340719663297
171.1099,0.0004975570388606482
171.592,0.00037912736950667324
172.0741,0.00023921528442726332
172.5563,6.934727291539486e-05
173.0384,0.00010345417903705595
173.5205,0.0001896527576167263
174.0026,0.00013298214842418117
174.4847,4.338370180344356e-05
174.9668,2.5533853944167695e-05
175.449,7.386700553115076e-05
175.9311,0.00012102582572393203
176.4132,0.00011214855359423761
176.8953,4.926655470485892e-05
177.3774,3.4631888098754303e-06
177.8595,7.875195143327094e-06
178.3417,1.631801280597107e-05
178.8238,4.039699220242578e-06
179.3059,3.205774538148043e-05
179.788,9.463727474346395e-05
180.2701,0.0001874106622421267
180.7522,0.0003274878497166601
181.2344,0.00042552085160705227
181.7165,0.0004206631560855663
182.1986,0.00040263809603692806
182.6807,0.000423108853503374
183.1628,0.0004966634009334451
183.6449,0.0006077921017592149
184.1271,0.0007328068595351974
184.6092,0.0008757094072039899
185.0913,0.001025903613662408
185.5734,0.0011748380961192672
186.0555,0.0013318565349094576
186.5376,0.0015116125555337957
187.0198,0.0017201089998472865
187.5019,0.0019394852313613109
187.984,0.0021256693355455685
188.4661,0.002231319837075874
188.9482,0.0023614937416480803
189.4303,0.0024995828635418623
189.9125,0.002673510599909564
190.3946,0.002927761015166522
190.8767,0.003291659300956424
191.3588,0.0037320303008271222
191.8409,0.0041024541315027
192.323,0.004326757736112892
192.8052,0.004564595373183254
193.2873,0.004865826996276653
193.7694,0.00519649727345268
194.2515,0.005501958524130992
194.7336,0.005755037948832228
195.2157,0.0059531268812252165
195.6979,0.006065391661087034
196.18,0.0060332148771211095
196.6621,0.005997411174166864
197.1442,0.006054384834745467
197.6263,0.006163468787259235
198.1084,0.006192537476209765
198.5906,0.006048454725223114
199.0727,0.005735700845990742
199.5548,0.0054036050150947056
200.0369,0.0050069180239801555
200.519,0.004632758175817275
201.0011,0.004349683452247503
201.4833,0.004151637189489673
201.9654,0.003953976408094906
202.4475,0.0036765248636036873
202.9296,0.00333527445643766
203.4117,0.0030789075303004837
203.8938,0.0029839064969173082
204.376,0.002928012669037503
204.8581,0.0027920230871463204
205.3402,0.002564668603622421
205.8223,0.0023413580377940587
206.3044,0.002203132663997106
206.7865,0.0021307407186603906
207.2687,0.00206284023730614
207.7508,0.0019817305945775718
208.2329,0.001901315788066954
208.715,0.0018422566490700668
209.1971,0.0018089636662390204
209.6792,0.0017837958547298092
210.1614,0.0017672846454530218
210.6435,0.0017547965039364098
211.1256,0.0017267785547516155
211.6077,0.0016551987871295313
212.0898,0.0015552320749549907
212.5719,0.0014658537357681515
213.0541,0.0013949455300175681
213.5362,0.0013541882703273986
214.0183,0.0013647514294397802
214.5004,0.0014092864064879744
214.9825,0.001443471087717353
215.4646,0.0014207965405715047
215.9468,0.001363588681881759
216.4289,0.0013662919002453819
216.911,0.0014522581232663352
217.3931,0.001575264014014427
217.8752,0.0017245791290121726
218.3573,0.001888079958170664
218.8395,0.0020306881823333183
219.3216,0.0021145611688205028
219.8037,0.002145652786383236
220.2858,0.002199491198542252
220.7679,0.0022626825037982954
221.25,0.002370508671839377
221.7322,0.0025380534186934043
222.2143,0.0027610909958332075
222.6964,0.0030250346915040114
223.1785,0.003337320174514095
223.6606,0.003701955966157104
224.1427,0.004024157775401171
224.6249,0.004253069215726073
225.107,0.004481451649551475
225.5891,0.004754178986595738
226.0712,0.005061845481600104
226.5533,0.005362166980770899
227.0354,0.0056024261196364064
227.5176,0.00576481802316304
227.9997,0.005990438567876479
228.4818,0.006278638011605018
228.9639,0.006631860160725818
229.446,0.007092667976307723
229.9281,0.007633709252450831
230.4103,0.008169028918425194
230.8924,0.008585857916862597
231.3745,0.008842971561615016
231.8566,0.00921052198026856
232.3387,0.009702241037228219
232.8208,0.010281272835127354
233.303,0.010945062044678744
233.7851,0.011688968343059087
234.2672,0.012494231637265953
234.7493,0.013342120927229967
235.2314,0.01422967358260104
235.7135,0.015168429800160203
236.1957,0.016294321460814727
236.6778,0.01735922463612818
237.1599,0.018294266655899834
237.642,0.019056525746219754
238.1241,0.019568459542834916
238.6062,0.019736335464243627
239.0884,0.01952633297576199
239.5705,0.019023447081328925
240.0526,0.018197489014071044
240.5347,0.01717026118707212
241.0168,0.015945249903477357
241.4989,0.014557032114230243
241.9811,0.013133238516671194
242.4632,0.011813980676423981
242.9453,0.010636579977784222
243.4274,0.009452613973916935
243.9095,0.0081206813124993
244.3916,0.0068893520136080345
244.8738,0.005941640021488134
245.3559,0.005288232140217494
245.838,0.004761711631847555
246.3201,0.004164038537089318
246.8022,0.0034352595941364726
247.2843,0.0028478189688181527
247.7665,0.002456576720126045
248.2486,0.002149243339205232
248.7307,0.0018617765525076222
249.2128,0.0015795634646386862
249.6949,0.0013070121398394458
250.177,0.0010453692102915823
250.6592,0.0007864299839895594
251.1413,0.0005846554618599082
251.6234,0.000453866823612114
252.1055,0.00036697806368378335
252.5876,0.00031966122037625685
253.0697,0.0003057983892842715
253.5519,0.0002913554935952634
254.034,0.00023300035509024063
254.5161,0.0001083083349183528
254.9982,4.005250278204558e-05
255.4803,7.417243284007384e-05
255.9624,0.00013310526001925272
256.4445,0.0001554511539979503
256.9267,0.00013369773760104839
257.4088,0.00010283978477902067
257.8909,0.00010447165588265713
258.373,0.00015218624807335495
258.8551,0.00014947595042935364
259.3372,5.312161077660506e-05
259.8194,6.571361406424608e-05
260.3015,0.00015312144040661408
260.7836,0.00020236491471791094
261.2657,0.00023158687493745188
261.7478,0.00025546344510095397
262.2299,0.00027289423350359106
262.7121,0.00029226702367629923
263.1942,0.0003239033579223851
263.6763,0.0003508269764300744
264.1584,0.0003574360665218574
264.6405,0.0003426955016394092
265.1227,0.00031846734337986
265.6048,0.0002942623140020945
266.0869,0.00026983942704392086
266.569,0.0002448465610388523
267.0511,0.00020351379464450618
267.5332,0.00017180467957754502
268.0154,0.0001930324836504707
268.4975,0.0002654434363701195
268.9796,0.00030813576401464725
269.4617,0.00023571123459290315
269.9438,4.927247026791474e-05
270.4259,6.713000351034099e-05
270.9081,5.5536518173589464e-05
271.3902,9.969323860376348e-06
271.8723,8.477743728784206e-06
272.3544,5.079068497972461e-06
272.8365,5.219761922257457e-05
273.3186,0.000143733344860583
273.8008,0.00027700850760891435
274.2829,0.0003969422816021645
274.765,0.0004932600126474775
275.2471,0.0005831591153361161
275.7292,0.0006816692413287153
276.2113,0.000787740620623976
276.6935,0.0008886940681115164
277.1756,0.0009752600904357525
277.6577,0.0010479628452740072
278.1398,0.0011154594197409222
278.6219,0.0012136543722920227
279.104,0.0012784404551620494
279.5862,0.0012563836479615386
280.0683,0.0011538645157930763
280.5504,0.0010201049072210506
281.0325,0.0008704872257194662
281.5146,0.0007162040075192663
281.9967,0.0005957505367650958
282.4789,0.0005282268088939904
282.961,0.0004755515321987692
283.4431,0.000419156772499868
283.9252,0.00035891107822807105
284.4073,0.00029414569982874004
284.8894,0.000221717582278585
285.3716,0.000145738138877845
285.8537,7.723727636165022e-05
286.3358,1.2820494335083175e-05
286.8179,4.039047538542002e-05
287.3,7.554503742191132e-05
287.7821,9.517054820647967e-05
288.2643,0.00011095884658491288
288.7464,0.00013353379892324733
289.2285,0.0001497375928740193
289.7106,0.00012988651488178145
290.1927,6.266709909049838e-05
290.6748,1.5407083978885156e-05
291.157,8.608729811071045e-05
291.6391,0.00015396251710141955
292.1212,0.00023170111318793966
292.6033,0.0003233949104289151
293.0854,0.0004293729014090487
293.5675,0.0005489370981759754
294.0497,0.000681463166386197
294.5318,0.0008274563533105472
295.0139,0.0010028663746177277
295.496,0.001191995168510018
295.9781,0.0013541790575652623
296.4602,0.0014690292294118048
296.9424,0.0015669924082628494
297.4245,0.0017040632774994817
297.9066,0.0018887393979867225
298.3887,0.0020621235813883935
298.8708,0.0022160484716297205
299.3529,0.0023448264002971964
299.8351,0.002441503186624709
300.3172,0.0025065050420816077
300.7993,0.002530829643414256
301.2814,0.00248984691349286
301.7635,0.0023834981815690805
302.2456,0.002258668163918038
302.7278,0.0021361030311058266
303.2099,0.0019974179889665038
303.692,0.0017943813184242048
304.1741,0.0015088070270222402
304.6562,0.0012391203863651135
305.1383,0.0011110804484329615
305.6205,0.001132719772044041
306.1026,0.001143936552385869
306.5847,0.0011081197576117451
307.0668,0.0010608262856271113
307.5489,0.001031947185623699
308.031,0.0010254885544840654
308.5132,0.0010478159259620472
308.9953,0.0011124187233537866
309.4774,0.0012218202737201438
309.9595,0.001322262170468021
310.4416,0.00139637690232419
310.9237,0.0014716505026806381
311.4059,0.00157655864953566
311.888,0.001708871369570098
312.3701,0.0018324610585082888
312.8522,0.0019144793705128083
313.3343,0.001964942517554483
313.8164,0.0020658280815315467
314.2986,0.0022295650483300533
314.7807,0.0024244799417260407
315.2628,0.002633441872968514
315.7449,0.0028582647864338526
316.227,0.0031129069865227046
316.7091,0.003407069511764399
317.1913,0.0037309989563500956
317.6734,0.0040410966507939605
318.1555,0.004298581715325131
318.6376,0.004590341649178169
319.1197,0.004981025313555498
319.6018,0.005433861665478576
320.084,0.00586682754412071
320.5661,0.006237146640237265
321.0482,0.00655932178095936
321.5303,0.006872730251185614
322.0124,0.007200520327988559
322.4945,0.007496230597269121
322.9767,0.007738089847453005
323.4588,0.007945338204938162
323.9409,0.008155219472865375
324.423,0.008384893632918704
324.9051,0.008600496511014664
325.3872,0.008725009415695336
325.8694,0.008649852671953352
326.3515,0.00866389486097766
326.8336,0.008826611635590148
327.3157,0.009079114050452333
327.7978,0.009359278995833746
328.2799,0.00964108284311095
328.7621,0.009955519263638708
329.2442,0.010360691693562837
329.7263,0.01090815765909034
330.2084,0.01141790463690372
330.6905,0.01181778700183285
331.1726,0.012230678756662608
331.6548,0.012760538648865779
332.1369,0.013409863821863469
332.619,0.014100510657452717
333.1011,0.01475091226897368
333.5832,0.015346008214744892
334.0653,0.01598735707526158
334.5475,0.01664866853668057
335.0296,0.017368781664638854
335.5117,0.01817834586411663
335.9938,0.019064089908815723
336.4759,0.019989894922340375
336.958,0.02092142154603378
337.4402,0.021860095333615933
337.9223,0.02291359407916931
338.4044,0.024187888791370106
338.8865,0.025452447068639684
339.3686,0.026683640600509997
339.8507,0.027865041577445702
340.3329,0.028977618372402453
340.815,0.03001983390875018
341.2971,0.03098117594000935
341.7792,0.0318261607854894
342.2613,0.03255015782001138
342.7434,0.033142848749982856
343.2256,0.03360595005845444
343.7077,0.0339392144554951
344.1898,0.03416880618557143
344.6719,0.034302420329478146
345.154,0.03427265341013414
345.6361,0.03393943750131524
346.1183,0.03325695123344972
346.6004,0.03232241834000664
347.0825,0.031090880541761765
347.5646,0.029706929716030322
348.0467,0.028224252021954974
348.5288,0.026680338552607527
349.011,0.02512466668948109
349.4931,0.023626593984994077
349.9752,0.0221793999716093
350.4573,0.020797694150545762
350.9394,0.019476521025538675
351.4215,0.018211366343141338
351.9037,0.01699340524699179
352.3858,0.015826405271921484
352.8679,0.01473096906336008
353.35,0.01373844425668125
353.8321,0.012848384760244717
354.3142,0.01198515864573516
354.7964,0.011139771348014431
355.2785,0.010343570502456196
355.7606,0.009594679614877996
356.2427,0.008898446936140954
356.7248,0.008259813416043335
357.2069,0.0076846024900195965
357.6891,0.007170447932847411
358.1712,0.006721674893908578
358.6533,0.006354798461537622
359.1354,0.0060129855909990745
359.6175,0.005686000418677493
360.0996,0.005365886027380583
360.5818,0.005035244843137618
361.0639,0.004674016803720537
361.546,0.004336435500295771
362.0281,0.004124626340671021
362.5102,0.004056433960221721
362.9923,0.003942385783563238
363.4745,0.003671209584733367
363.9566,0.003358702510549799
364.4387,0.003126005109869171
364.9208,0.002993058648776212
365.4029,0.0028773710853397185
365.885,0.002702187988910417
366.3672,0.002484502056807261
366.8493,0.0023157092231248983
367.3314,0.0022276264892237274
367.8135,0.0021787106013387023
368.2956,0.002122631548451739
368.7777,0.0020606180221024654
369.2599,0.0020190631311641956
369.742,0.0020357721723858004
370.2241,0.002072726015960408
370.7062,0.0020520205755005998
371.1883,0.00195428092735191
371.6704,0.001861225726308326
372.1526,0.0018363648452429128
372.6347,0.0018757586161369376
373.1168,0.0019552555406094677
373.5989,0.0021096798595350154
374.081,0.0022755221849227324
374.5631,0.0023962559175987283
375.0453,0.0024758900637388646
375.5274,0.0025602527812659164
376.0095,0.0026741147631528057
376.4916,0.0028090817284468802
376.9737,0.0029376298229431717
377.4558,0.003067360545168409
377.938,0.0031944564174227175
378.4201,0.003274269000218964
378.9022,0.0033508464488587815
379.3843,0.0035244672547826857
379.8664,0.0038425703546406164
380.3485,0.004239963334264124
380.8307,0.004577373474266045
381.3128,0.004823350344242554
381.7949,0.005058805270095187
382.277,0.005295073828309103
382.7591,0.005524762534828963
383.2412,0.005757666010452109
383.7234,0.00598491091059481
384.2055,0.006155788252931022
384.6876,0.006207345779138024
385.1697,0.006110888159572907
385.6518,0.006013601391415541
386.1339,0.0058943203658637445
386.6161,0.0057846206129335085
387.0982,0.005717401391095113
387.5803,0.005681064317701406
388.0624,0.005634219846650355
388.5445,0.005544569973421609
389.0266,0.005415474931783763
389.5088,0.005292707603086775
389.9909,0.005149424907759313
390.473,0.005049961018444517
390.9551,0.004996997333806213
391.4372,0.004996842171496553
391.9193,0.0050674119294591875
392.4015,0.005218108473895134
392.8836,0.00541259958023286
393.3657,0.005569633535254016
393.8478,0.005647268027128398
394.3299,0.005790191909614769
394.812,0.006058152369576918
395.2942,0.006365044022797417
395.7763,0.006660434269814302
396.2584,0.006935110348491461
396.7405,0.007200229398657946
397.2226,0.007468112277465265
397.7047,0.00773783285987763
398.1869,0.008006690351942507
398.669,0.008290540402178364
399.1511,0.008552570752618163
399.6332,0.00879538037194872
400.1153,0.009004737967080829
400.5974,0.009142599679214514
401.0796,0.009178408230990937
401.5617,0.009132014700402336
402.0438,0.009042233908974814
402.5259,0.008905341961276509
403.008,0.008739565579870398
403.4901,0.008524486374569545
403.9723,0.008294453401675124
404.4544,0.008107720410820442
404.9365,0.007994524657100658
405.4186,0.007892112683902306
405.9007,0.0077456297659380885
406.3828,0.007562935843956765
406.865,0.0073853380340833654
407.3471,0.007225680866264505
407.8292,0.007081345976524656
408.3113,0.006947562123841746
408.7934,0.00682593426835633
409.2755,0.006706837498047257
409.7577,0.006549498067228955
410.2398,0.00640842643481416
410.7219,0.006373495519851757
411.204,0.006460560970860213
411.6861,0.0065918670754107275
412.1682,0.006695723997617796
412.6504,0.0067680102386310555
413.1325,0.00683360510504019
413.6146,0.006865040019213046
414.0967,0.006914890760013778
414.5788,0.00703367720570353
415.0609,0.007199342064199573
415.5431,0.007351076256581376
416.0252,0.00745551988627185
416.5073,0.007511252248373164
416.9894,0.007510282483937783
417.4715,0.007437060420244383
417.9536,0.007321779672988532
418.4358,0.00713149249547818
418.9179,0.0069170581835268545
419.4,0.006743198815551847
419.8821,0.0066259009582704045
420.3642,0.006511216616142312
420.8463,0.006311057236679787
421.3285,0.00599126771646873
421.8106,0.005681854675716242
422.2927,0.005387182054381538
422.7748,0.005097833439797073
423.2569,0.004822359729871813
423.739,0.004551906975310736
424.2212,0.00425576128179869
424.7033,0.0039000536264300104
425.1854,0.0034989188107325876
425.6675,0.0031285793495628884
426.1496,0.002800454219147518
426.6317,0.002489606896795103
427.1139,0.0021429228994976394
427.596,0.0018196732597811445
428.0781,0.001612298832919389
428.5602,0.0015823699629146772
429.0423,0.0015993558718825835
429.5244,0.001505138408163196
430.0066,0.0012980946709739048
430.4887,0.0010471739419058252
430.9708,0.0007276559557366742
431.4529,0.00041394627667679063
431.935,0.00018046530633237547
432.4171,2.783633655015844e-05
432.8993,7.003507834118844e-05
433.3814,8.489167553832989e-05
433.8635,6.280621179875371e-05
434.3456,9.48006315626038e-05
434.8277,0.0001970165668803442
435.3098,0.00031395532039136533
435.792,0.00040451560847204633
436.2741,0.00046851448506165274
436.7562,0.0005211819551531691
437.2383,0.0005861828408456324
437.7204,0.0006210415083576004
438.2025,0.0005813223814955054
438.6847,0.0004869327845888377
